151 151 151 152 152 152 152 152 153 153 153 153 153 154 154 154 154 154 154 154 155 155 155 155 155 155 155 155 155 155 154 154 153 153 152 151 151 150 149 148 147 146 145 144 143 142 141 140 139 138 137 137 136 135 135 134 134 133 133 133 132 132 132 132 132 132 132 132 132 132 132 132 133 133 133 133 133 133 133 133 133 133 133 133 133 133 133 133 133 133 133 133 133 133 133 133 133 133 133 134 134 134 134 134 134 134 134 134 134 134 134 134 134 134 134 134 134 134 134 134 134 135 135 135 135 135 135 135 135 135 135 135 135 135 135 135 135 136 136 136 136 136 136 136 136 136 136 137 137 137 137 138 138 138 139 139 140 140 141 141 142 142 142 143 143 143 143 144 144 144 144 143 143 143 143 142 142 142 141 141 141 140 140 140 139 139 139 139 139 138 138 138 138 137 137 137 137 137 137 138 140 143 147 151 157 163 169 175 181 187 192 196 200 202 204 206 207 207 207 206 205 202 199 194 189 183 176 170 164 158 152 148 144 141 139 138 137 136 135 134 133 133 132 132 132 131 131 131 132 132 132 132 133 133 133 134 134 134 135 135 136 136 137 137 138 138 139 139 140 140 141 141 142 142 143 143 144 144 145 145 146 147 147 148 148 149 149 150 151 151 152 152 153 153 154 154 155 155 155 155 156 156 156 156 156 156 155 155 155 154 154 153 152 151 150 150 149 147 146 145 144 143 142 141 140 139 138 137 136 136 135 134 134 134 133 133 133 133 132 132 132 132 132 132 132 132 133 133 133 133 133 133 133 133 133 134 134 134 134 134 134 134 134 134 134 135 135 135 135 135 135 135 135 135 135 135 135 135 135 135 136 136 136 136 136 136 136 136 136 136 136 136 136 136 137 137 137 137 137 137 137 137 137 137 137 137 137 138 138 138 138 138 138 138 138 138 138 138 138 139 139 139 139 139 139 139 139 139 139 139 139 139 139 140 140 140 140 140 140 140 140 141 141 141 142 142 143 144 144 145 145 146 146 147 147 148 148 148 149 149 149 149 149 149 149 148 148 147 147 146 146 145 145 145 145 144 144 144 143 143 143 143 143 142 142 142 142 141 141 141 141 142 143 145 147 151 156 161 167 172 179 184 190 196 201 205 209 211 213 214 215 215 214 212 210 207 202 197 191 185 179 173 167 161 156 151 148 145 144 142 141 140 139 138 138 137 137 136 136 136 136 136 136 136 137 137 137 137 138 138 138 139 139 139 140 140 140 140 141 141 141 142 142 143 143 144 144 144 145 145 146 146 147 147 148 149 149 150 150 151 151 152 152 153 153 154 154 155 155 156 156 156 156 157 157 157 157 157 157 157 157 156 156 155 155 154 154 153 152 151 150 149 148 147 146 145 144 144 143 142 141 140 139 139 138 137 137 136 136 136 136 135 135 135 135 135 135 135 135 135 135 135 135 136 136 136 136 136 137 137 137 137 137 137 137 137 137 138 138 138 138 138 137 137 137 137 137 137 137 137 138 138 138 138 138 138 138 138 138 138 138 138 138 138 138 138 138 138 138 138 138 138 138 138 138 138 138 138 139 139 139 139 139 139 139 139 139 139 139 139 139 140 140 140 140 140 140 140 140 140 140 140 140 140 141 141 141 141 141 141 141 141 141 141 141 142 142 142 142 142 143 143 144 144 145 145 146 146 147 147 148 148 148 149 149 149 149 149 149 149 149 149 148 148 148 147 147 147 146 146 146 145 145 145 145 145 145 145 145 145 144 144 144 144 144 144 145 146 149 152 156 161 166 172 177 183 189 194 200 205 209 212 213 214 214 214 214 212 210 207 203 198 193 187 181 175 169 163 158 153 149 146 144 143 142 141 141 140 140 139 139 139 139 139 139 139 139 139 139 139 140 140 140 141 141 141 142 142 143 143 144 144 145 145 145 146 146 147 147 148 148 148 149 149 150 150 151 151 152 152 153 153 154 154 155 156 156 157 157 158 158 159 159 160 160 160 161 161 161 161 161 161 161 161 161 161 161 160 160 159 158 158 157 156 155 154 153 152 151 150 149 148 147 146 145 144 143 142 141 140 140 139 138 138 137 137 137 136 136 136 136 136 136 136 136 136 136 136 136 136 136 136 136 136 136 136 136 136 137 137 137 137 137 137 137 137 137 137 137 137 138 138 138 138 138 138 138 138 138 138 138 138 138 138 138 138 138 138 138 138 138 138 138 138 138 137 137 138 138 138 138 138 138 138 138 138 138 138 138 138 138 138 138 138 138 138 138 138 138 138 138 138 138 138 138 138 138 138 138 138 139 139 139 139 140 140 140 141 141 142 142 142 143 143 143 143 143 143 144 144 143 143 143 143 143 142 142 142 141 141 141 141 140 140 140 140 140 140 139 139 139 139 138 138 137 137 137 137 138 140 142 147 152 158 164 170 176 182 188 194 199 204 207 210 212 213 214 214 213 212 210 206 200 194 188 182 176 169 163 157 151 146 143 140 138 137 136 135 134 133 132 132 131 131 131 130 130 130 130 131 131 131 131 132 132 132 133 133 133 134 134 135 135 135 136 136 137 137 137 138 138 139 139 140 140 140 141 141 142 142 143 144 144 145 145 146 146 147 147 148 149 149 150 151 151 152 152 153 153 154 154 155 155 155 155 155 155 155 155 155 154 154 153 152 151 150 149 148 147 146 144 143 142 140 139 138 137 136 134 133 133 132 131 130 130 129 129 128 128 128 128 128 128 127 127 127 127 128 128 128 128 128 128 128 128 128 128 129 129 129 129 129 129 129 129 129 129 130 130 130 130 130 130 130 130 130 131 131 131 131 131 131 131 131 132 132 132 132 132 132 132 132 132 132 132 132 133 133 133 133 133 133 133 133 133 133 133 133 133 133 133 134 134 134 134 134 134 134 134 134 134 134 134 135 135 135 135 135 135 136 136 136 137 137 138 138 138 139 139 140 140 141 141 141 142 142 142 142 142 142 142 142 142 142 142 141 141 141 140 140 140 140 139 139 139 139 139 139 139 138 138 138 137 137 137 137 137 138 140 143 147 152 158 163 170 175 182 188 194 200 205 210 214 216 218 220 220 220 218 216 213 208 203 197 190 184 178 171 165 159 154 149 145 142 140 138 137 136 135 134 133 132 132 132 131 131 131 131 132 132 132 132 132 133 133 133 134 134 134 135 135 135 136 136 137 137 137 138 138 139 139 139 140 140 141 141 142 142 143 143 144 144 145 146 146 147 147 148 149 149 150 150 151 151 152 152 153 153 154 154 154 155 155 155 155 155 155 154 154 154 154 153 152 152 151 150 149 148 147 146 145 144 143 142 141 140 139 138 138 137 136 135 135 134 134 133 133 133 132 132 132 132 132 132 132 132 132 132 132 132 132 133 133 133 133 133 133 133 133 133 133 133 133 134 134 134 134 134 134 134 134 134 134 134 134 135 135 135 135 135 135 135 135 135 136 136 136 136 136 136 136 136 137 137 137 137 137 137 137 137 137 137 137 138 138 138 138 138 138 138 138 138 138 139 139 139 139 139 139 139 139 139 139 139 140 140 140 140 140 140 140 140 140 140 140 140 141 141 141 141 141 141 142 142 142 142 143 143 144 144 145 145 146 146 147 147 148 148 148 148 149 149 149 149 149 149 149 149 148 148 148 148 147 147 147 146 146 146 145 145 145 145 145 144 144 144 143 143 143 142 143 143 144 146 148 152 156 161 167 173 179 185 190 196 202 206 210 213 216 217 218 218 218 216 214 211 207 201 196 190 184 178 172 166 160 155 151 148 146 144 143 142 141 140 140 139 138 138 138 137 137 137 137 137 137 138 138 138 138 138 138 139 139 139 140 140 140 141 141 141 142 142 143 143 143 144 144 145 145 146 146 147 147 148 148 149 149 150 150 151 151 152 152 153 153 154 154 154 155 155 155 156 156 156 156 157 157 157 157 157 157 157 156 156 156 155 155 154 154 153 152 151 150 149 149 148 147 146 145 144 143 142 141 140 140 139 138 138 137 136 136 136 135 135 135 135 134 134 134 134 134 134 134 134 134 134 134 134 134 135 135 135 135 135 135 135 135 135 135 135 135 136 136 136 136 136 137 137 137 137 137 138 138 138 138 138 138 139 139 139 139 139 139 139 140 140 140 140 140 140 140 140 140 140 140 140 140 140 140 140 140 141 141 141 141 141 141 141 141 140 140 140 141 140 140 140 140 140 140 140 140 140 140 140 140 140 140 140 140 141 141 141 141 142 142 142 142 143 143 143 144 144 144 144 144 145 145 145 145 146 146 146 146 147 147 148 148 148 149 149 149 150 150 150 150 150 150 150 150 149 149 149 148 148 147 147 146 146 145 145 145 144 144 144 144 143 143 143 143 143 143 142 142 142 142 143 143 145 147 150 155 160 165 171 177 182 188 194 200 205 209 213 215 217 218 219 219 218 216 213 209 204 199 193 187 181 175 169 163 157 153 149 146 144 142 141 140 139 138 137 136 136 136 135 135 135 135 135 135 135 135 135 135 136 136 136 136 137 137 137 137 138 138 138 138 139 139 139 140 140 140 141 141 142 142 142 143 143 143 144 144 144 145 145 146 146 146 147 147 147 148 148 148 149 149 149 149 149 150 150 150 150 150 150 150 150 149 149 149 149 148 148 147 147 146 145 145 144 144 143 142 141 141 140 139 139 138 137 137 136 136 135 135 134 134 134 134 133 133 133 133 133 133 133 133 133 133 134 134 134 134 134 134 134 135 135 135 135 135 135 136 136 136 136 136 136 136 137 137 137 137 137 137 137 137 137 137 138 138 138 138 138 138 138 138 138 138 138 138 138 138 138 138 138 139 139 139 139 139 139 139 139 139 140 140 140 140 140 140 140 140 140 141 141 141 141 141 141 141 141 141 141 141 141 142 142 142 142 142 142 142 142 142 142 143 143 143 144 144 144 145 145 146 146 147 147 148 148 148 149 149 149 149 149 149 149 149 149 149 149 148 148 148 148 147 147 147 147 147 146 146 146 146 146 146 146 146 146 146 146 145 145 146 146 147 149 151 155 159 164 170 175 181 187 192 198 203 208 212 214 216 217 218 218 217 216 214 211 206 201 196 190 185 179 173 167 162 157 153 151 149 147 147 146 145 145 145 144 144 144 143 143 143 143 143 143 144 144 144 144 144 145 145 145 145 146 146 146 147 147 147 147 148 148 148 149 149 149 150 150 150 151 151 151 152 152 152 153 153 154 154 154 155 155 155 156 156 156 157 157 157 157 158 158 158 158 158 158 158 158 158 158 158 157 157 156 156 155 155 154 154 153 152 151 150 149 148 147 146 145 144 143 142 142 141 140 139 138 137 137 136 136 135 135 135 134 134 134 134 134 134 134 134 134 134 134 134 134 134 134 135 135 135 135 135 135 135 136 136 136 136 136 136 136 136 136 136 136 136 136 136 136 136 136 136 136 136 136 136 137 137 136 136 136 136 136 136 136 136 136 136 136 136 136 136 136 136 137 136 136 136 136 136 136 136 136 136 137 137 137 137 137 137 137 137 137 137 137 138 138 138 139 139 140 141 141 142 143 144 145 146 147 148 149 150 151 153 155 157 159 160 162 164 166 168 169 171 172 174 175 177 178 180 181 182 183 183 183 183 183 183 182 181 180 180 179 179 179 180 182 184 188 191 195 199 203 207 211 215 219 222 225 226 227 227 227 226 225 222 219 215 211 205 200 194 188 182 176 171 165 161 157 154 152 150 149 148 148 147 146 146 146 146 146 146 146 146 146 147 147 147 148 148 149 150 150 151 152 152 153 154 154 155 156 157 158 159 160 161 162 163 164 166 167 168 169 171 172 173 175 176 177 179 180 181 182 184 185 186 187 188 189 190 191 192 193 193 194 195 196 196 197 197 198 198 198 198 198 198 198 198 197 197 197 196 196 195 195 194 193 192 192 191 190 189 188 188 187 186 185 185 184 184 183 182 182 181 181 180 180 180 179 179 179 178 178 178 178 177 177 177 177 177 176 176 176 176 176 176 176 175 175 175 175 175 175 175 175 175 175 175 175 174 174 174 174 174 174 174 174 174 173 173 173 173 173 172 172 172 172 172 171 171 171 170 170 170 169 169 168 168 168 167 167 167 167 166 166 166 165 165 165 165 165 165 165 165 165 165 165 165 165 164 164 164 164 163 163 162 162 162 161 160 160 159 158 157 157 156 155 154 154 153 152 152 151 150 150 149 148 148 147 146 145 144 144 143 143 144 145 148 151 155 160 165 171 177 182 188 193 198 202 204 206 207 208 208 207 206 204 201 197 192 186 180 173 166 159 153 146 141 136 133 130 128 126 125 124 123 122 121 121 120 120 119 119 118 118 118 118 118 118 118 118 118 118 118 118 118 118 118 118 118 118 118 118 118 118 119 119 119 119 119 119 120 120 120 120 121 121 121 121 122 122 122 123 123 123 124 124 124 125 125 125 125 126 126 126 127 127 127 128 128 128 129 129 129 129 129 129 129 129 128 128 128 127 127 127 126 126 125 124 123 123 122 121 120 119 118 118 117 116 115 115 114 113 112 112 111 111 111 110 110 110 110 110 110 110 110 111 111 111 112 112 113 113 114 114 114 115 115 115 115 116 116 116 116 117 117 117 117 117 117 117 118 118 118 118 118 118 118 119 119 119 119 119 119 119 120 120 120 120 120 120 121 121 121 121 121 121 122 122 122 122 123 123 123 123 124 124 125 125 126 126 127 127 128 128 129 129 130 130 130 131 131 131 131 131 131 131 131 131 130 130 130 129 129 129 128 128 128 127 127 127 127 127 126 126 126 126 125 125 124 124 124 124 125 127 129 132 137 142 148 154 161 168 174 181 187 192 196 199 201 203 204 204 204 203 201 198 194 189 183 176 170 162 156 149 143 138 134 131 129 128 126 126 125 124 123 123 123 122 122 122 122 122 122 122 122 123 123 123 123 123 124 124 124 125 125 125 125 126 126 126 127 127 127 127 128 128 128 129 129 129 130 130 131 131 131 132 132 133 133 134 134 135 135 136 136 137 137 138 138 139 139 140 140 140 141 141 142 142 142 142 142 142 142 142 142 142 141 141 141 140 139 139 138 138 137 136 135 135 134 133 132 132 131 131 130 130 129 129 129 128 128 128 128 128 128 128 128 128 128 128 128 128 128 128 129 129 129 129 129 129 132 132 132 132 132 133 133 133 133 133 133 133 133 133 133 133 133 133 133 133 131 131 131 131 131 130 130 130 130 130 130 130 129 129 129 129 129 129 128 128 128 128 128 128 127 127 127 127 127 127 127 127 127 128 128 128 128 129 129 129 129 129 130 130 130 130 130 130 130 130 130 129 129 129 129 128 128 128 128 128 127 127 127 127 127 127 127 127 127 127 127 127 126 126 126 126 127 128 130 132 136 140 146 152 158 165 171 178 184 190 196 200 203 206 208 209 210 210 209 207 204 201 196 190 183 177 170 164 158 152 147 142 139 137 135 133 132 131 130 129 128 128 127 126 126 126 126 126 125 125 125 125 125 125 125 125 125 125 125 125 125 125 125 125 125 125 125 125 125 125 125 125 125 125 125 125 126 126 126 126 126 126 126 127 127 127 127 127 127 128 128 128 128 128 128 128 128 128 128 128 128 127 127 127 126 126 125 125 124 123 122 121 120 119 118 117 115 114 113 112 110 109 108 107 105 104 103 102 101 101 100 99 99 98 98 97 97 97 96 96 96 96 96 96 96 96 96 96 96 96 96 96 96 97 97 97 97 97 97 97 97 97 98 98 98 98 98 98 98 98 98 98 98 98 98 98 99 99 99 99 99 99 99 99 99 99 99 99 99 100 100 100 100 100 100 100 100 100 101 101 101 101 101 101 102 102 102 102 103 103 103 104 104 105 105 106 106 107 107 108 109 109 110 110 110 111 111 111 112 112 112 112 112 112 112 112 112 112 111 111 111 111 111 111 111 111 111 111 111 111 111 111 111 111 111 111 111 111 112 112 114 116 118 122 127 132 139 146 153 160 167 174 180 185 189 192 194 195 197 197 197 196 194 192 188 183 177 171 164 157 151 145 139 135 132 129 128 127 126 125 125 125 124 124 124 124 124 125 125 125 126 126 127 128 128 129 129 130 130 131 132 132 133 134 134 135 136 136 137 137 138 138 139 140 140 141 142 142 143 144 144 145 146 147 147 148 149 149 150 151 152 152 153 154 155 155 156 157 157 158 158 159 159 160 160 160 161 161 161 161 161 161 161 160 160 160 159 158 158 157 156 156 155 154 153 153 152 151 150 150 149 149 148 148 147 147 147 147 146 146 146 146 146 146 146 146 146 147 147 147 147 147 147 147 148 148 148 148 148 149 149 149 149 149 149 149 149 149 149 150 150 150 151 151 151 152 152 152 153 153 154 154 155 156 157 157 158 159 159 160 160 161 161 162 162 163 163 164 164 164 164 164 165 165 165 165 165 165 166 166 166 166 166 166 166 166 165 165 165 165 165 165 164 164 163 163 163 162 162 161 161 161 160 160 160 160 160 159 159 159 159 159 159 159 160 159 159 159 159 159 159 159 158 158 158 157 157 156 156 155 155 155 154 154 153 153 152 152 152 152 152 151 151 151 151 150 150 149 149 149 149 149 150 152 154 158 162 167 172 178 183 189 194 200 205 209 212 215 216 218 218 218 218 217 215 212 207 203 197 192 186 180 175 169 165 160 157 155 153 152 151 150 149 148 148 148 147 147 147 146 146 146 146 146 147 147 147 147 147 147 148 148 148 148 149 149 149 149 150 150 150 150 151 151 151 152 152 152 152 153 153 153 154 154 154 155 155 155 156 156 156 157 157 157 157 158 158 158 158 158 159 159 159 159 159 159 159 159 159 159 158 158 158 157 157 156 155 155 154 153 152 151 150 149 148 147 146 145 144 143 142 141 140 139 139 138 137 137 136 135 135 135 134 134 133 133 133 133 133 133 133 132 132 132 132 132 132 132 132 132 132 132 132 132 132 132 132 132 133 133 133 133 133 133 132 132 132 132 132 132 132 132 132 132 132 132 132 132 132 132 132 132 132 131 131 131 131 131 130 130 130 130 129 129 129 128 128 128 128 127 127 127 126 126 126 126 125 125 125 125 124 124 124 124 123 123 123 123 123 123 122 122 122 122 122 122 122 121 121 121 121 121 121 121 121 121 120 120 120 120 120 120 120 119 119 119 119 119 119 119 119 119 119 119 119 119 119 120 120 120 120 121 121 121 122 122 122 122 123 123 123 123 123 123 123 123 123 122 122 122 121 121 121 120 120 120 119 119 119 119 118 118 118 118 118 118 117 117 117 117 116 116 116 116 117 119 121 124 128 133 138 145 152 159 166 172 178 182 185 188 189 191 192 192 192 191 189 187 183 178 173 166 159 152 145 138 133 129 126 124 122 121 120 119 118 118 117 117 117 117 117 117 117 118 118 118 119 119 120 120 120 121 121 122 122 123 124 124 125 125 126 126 127 128 128 129 129 130 131 131 132 133 133 134 135 135 136 137 137 138 139 139 140 141 142 142 143 144 145 146 146 147 148 149 149 150 151 151 152 152 153 153 154 154 154 154 154 154 154 154 154 154 153 153 153 152 152 151 150 150 149 148 148 147 147 146 145 145 145 144 144 144 143 143 143 143 143 143 143 143 143 143 143 143 144 144 144 144 144 145 145 145 145 145 146 146 146 146 147 147 147 147 148 148 148 148 149 149 149 150 150 150 150 150 151 151 151 151 152 152 152 152 152 153 153 153 153 153 154 154 154 154 155 155 155 155 156 156 156 156 156 157 157 157 157 157 158 158 158 158 158 158 159 159 159 159 159 159 159 160 160 160 160 160 160 160 160 160 160 160 160 160 160 161 161 161 161 161 161 161 161 161 161 161 161 161 161 162 162 162 162 162 162 162 162 161 161 161 161 161 161 161 161 161 161 160 160 160 160 159 159 159 159 158 158 158 157 157 157 156 156 156 156 156 156 156 156 155 155 155 155 155 155 155 155 155 155 155 155 155 154 154 154 153 153 152 152 151 151 150 150 149 149 149 148 148 148 147 147 147 147 147 146 146 146 145 145 145 145 146 147 148 151 154 158 163 169 175 180 186 192 197 203 207 211 213 215 217 217 217 217 216 214 210 206 201 196 190 184 178 172 167 161 157 153 151 149 147 146 145 145 144 143 143 142 142 142 141 141 141 141 141 141 141 142 142 142 142 142 143 143 143 143 144 144 144 144 145 145 145 146 146 147 147 147 148 148 148 149 149 150 150 151 151 152 152 153 154 154 155 155 156 156 157 157 158 159 159 160 160 161 161 162 162 162 163 163 163 164 164 164 164 164 164 163 163 163 162 162 161 160 160 159 158 157 156 156 155 154 153 152 151 151 150 149 149 148 148 147 147 147 146 146 146 146 146 146 146 146 146 146 146 147 147 147 147 147 147 148 148 148 148 148 149 149 149 149 149 149 149 149 149 149 149 149 150 150 150 150 150 150 150 150 150 150 150 150 150 150 150 150 150 150 150 150 150 150 150 150 150 150 149 149 149 149 149 149 149 149 149 148 148 148 148 148 148 148 148 148 148 148 148 148 148 148 148 148 148 148 148 148 148 148 149 149 149 149 150 150 150 150 151 151 152 152 153 154 154 155 155 155 156 157 157 158 159 159 160 160 161 161 161 162 162 163 163 163 164 164 164 164 164 164 164 164 164 164 164 164 164 164 164 164 164 164 164 163 163 163 163 163 163 164 164 164 164 163 163 163 163 163 162 162 162 162 161 161 160 160 159 159 159 158 158 157 157 157 156 156 156 155 155 155 155 155 155 154 154 153 153 153 152 153 153 154 156 159 162 167 172 177 183 188 193 198 203 208 212 215 217 219 220 220 220 219 217 215 211 207 202 196 191 185 180 174 169 164 160 157 155 153 152 151 150 149 149 148 148 147 147 147 147 147 147 147 147 147 147 147 148 148 148 148 148 149 149 149 150 150 150 150 151 151 151 152 152 153 153 153 154 154 155 155 156 156 157 157 158 159 159 160 161 161 162 163 164 164 165 166 166 167 168 169 169 170 171 171 172 172 173 173 174 174 174 174 175 175 175 175 175 175 174 174 174 174 173 173 172 172 172 171 171 171 170 170 170 169 169 169 169 169 169 169 169 170 170 170 170 170 171 171 171 172 172 172 173 173 173 173 174 174 174 174 174 174 174 174 174 174 174 174 174 174 174 174 174 174 174 174 173 173 173 173 173 172 172 172 172 171 171 171 171 170 170 170 169 169 169 169 168 168 168 168 167 167 167 166 166 166 166 165 165 165 164 164 164 163 163 163 162 162 162 161 161 161 161 160 160 160 160 159 159 159 159 159 159 159 158 158 158 158 158 158 158 157 157 157 157 157 157 157 157 157 157 157 157 157 157 157 157 157 158 158 158 159 159 159 159 160 160 160 160 160 160 160 160 160 159 159 159 158 158 157 156 156 155 155 154 154 153 153 152 152 151 151 150 150 149 149 148 148 147 147 146 146 146 147 148 151 154 158 163 168 174 180 186 191 197 201 205 208 210 211 212 212 212 211 210 207 203 199 194 188 181 175 169 163 157 151 147 144 141 140 138 137 136 136 135 134 134 133 133 132 132 132 132 132 132 132 132 132 132 132 133 133 133 133 134 134 134 134 134 135 135 135 135 136 136 136 136 136 137 137 137 137 138 138 138 138 139 139 139 140 140 141 141 141 142 142 143 143 144 144 144 145 145 145 146 146 146 146 147 147 147 147 146 146 146 145 145 144 143 143 142 141 140 139 138 137 136 134 133 132 131 130 129 128 127 126 125 124 124 123 122 122 121 121 121 120 120 120 120 120 120 120 120 120 120 120 120 120 120 120 120 120 120 121 121 121 121 121 121 121 121 121 121 121 122 122 122 122 122 122 122 122 123 123 123 123 123 123 123 123 123 123 123 124 124 124 124 124 124 124 124 124 124 124 124 125 125 125 125 125 125 125 125 125 125 125 125 125 125 126 126 126 126 126 126 126 126 126 126 126 126 126 126 126 126 126 127 127 127 127 127 127 127 128 128 128 128 129 129 130 130 131 131 132 132 132 133 133 133 134 134 134 134 134 134 134 134 134 134 134 133 133 133 132 132 132 131 131 131 131 130 130 130 130 130 130 130 130 129 129 129 128 128 129 129 131 132 135 139 143 148 154 161 167 174 180 186 191 196 199 202 203 205 205 205 205 204 201 198 194 189 183 176 170 163 157 151 145 141 138 135 133 132 131 130 129 128 128 127 127 127 126 126 126 126 126 126 127 127 127 127 127 128 128 128 129 129 130 130 130 131 131 132 132 133 133 134 134 135 135 136 136 137 137 138 138 139 139 140 140 141 141 142 143 143 144 144 145 146 146 147 147 148 149 149 150 150 150 151 151 151 152 152 152 152 152 151 151 151 150 150 149 148 148 147 146 145 144 143 142 142 141 140 139 138 137 136 136 135 135 134 134 133 133 133 133 133 132 132 132 132 132 133 133 133 133 133 133 133 133 134 134 134 134 134 134 134 134 134 134 135 135 135 135 135 135 135 135 135 136 136 136 136 136 136 136 136 136 136 137 137 137 137 137 137 137 137 137 137 138 138 138 138 138 138 138 138 138 139 139 139 139 139 139 139 139 139 139 140 140 140 140 140 140 140 140 140 140 140 141 141 141 141 141 141 141 141 141 141 141 142 142 142 142 142 142 143 143 143 144 144 145 145 146 146 146 147 147 148 148 148 148 149 149 149 149 149 149 149 149 149 148 148 148 147 147 147 147 146 146 146 145 145 145 145 145 145 145 145 144 144 144 144 143 143 144 145 146 148 152 156 161 166 172 178 184 190 195 200 205 208 209 211 212 212 212 211 210 208 205 201 196 190 184 178 172 165 159 154 149 146 144 143 142 141 140 140 139 139 138 138 138 138 138 138 138 138 138 138 138 139 139 139 140 140 140 141 141 141 142 142 143 143 143 144 144 144 145 145 146 146 146 147 147 147 148 148 149 149 150 150 151 151 152 152 153 153 154 154 155 155 156 156 157 157 158 158 158 159 159 159 159 159 159 159 159 159 159 158 158 158 157 156 156 155 154 153 152 151 150 149 148 147 146 145 144 143 142 141 140 139 139 138 137 137 136 136 136 135 135 135 135 135 135 135 134 134 134 135 135 135 135 135 135 135 135 135 135 136 136 136 136 136 136 136 136 136 136 136 137 137 137 137 137 137 137 137 137 137 137 137 137 137 137 137 137 137 137 137 137 137 137 137 137 137 137 137 137 137 137 137 137 137 137 137 137 137 137 137 137 137 137 137 137 137 137 137 137 137 137 137 137 137 137 137 137 137 138 138 138 138 138 138 138 138 138 138 138 138 138 138 139 139 139 139 139 139 139 140 140 140 140 141 141 142 142 143 143 143 144 145 145 145 146 146 147 147 147 147 148 148 148 148 148 147 147 147 147 146 146 146 145 145 145 145 144 144 144 144 144 144 143 143 143 142 142 141 141 141 141 142 144 146 150 154 159 165 171 177 183 188 194 200 205 209 212 215 216 217 217 217 216 213 210 205 200 194 188 182 175 169 162 156 151 147 143 141 139 137 136 135 134 133 132 131 131 130 130 130 130 130 130 130 130 130 130 130 131 131 131 132 132 132 133 133 134 134 135 135 136 136 137 137 137 138 138 139 139 140 140 141 141 142 142 143 143 144 144 145 145 146 146 147 147 148 148 149 149 150 150 151 151 151 152 152 152 153 153 153 153 153 153 153 152 152 151 151 150 149 149 148 147 146 145 144 142 141 140 139 138 137 136 135 134 133 133 132 131 131 130 130 129 129 129 129 129 129 128 128 128 128 129 129 129 129 129 129 129 129 129 129 130 130 130 130 130 130 131 131 131 131 131 131 131 132 132 132 132 132 132 133 133 133 133 133 133 133 134 134 134 134 134 134 134 135 135 135 135 135 135 135 135 136 136 136 136 136 136 136 137 137 137 137 137 137 137 138 138 138 138 138 139 139 139 139 139 139 139 140 140 140 140 140 140 140 140 141 141 141 141 141 141 141 142 142 142 142 142 142 142 143 143 143 143 143 143 144 144 144 144 145 145 145 146 146 147 147 148 148 148 149 149 149 150 150 150 150 150 150 150 150 150 150 149 149 149 148 148 148 147 147 147 147 146 146 146 146 146 146 146 145 145 145 145 144 144 144 144 145 146 149 152 155 160 165 171 177 183 188 194 199 204 208 210 213 214 215 215 215 214 212 209 206 201 196 190 184 178 172 166 160 156 152 149 147 145 144 143 142 141 140 140 139 139 138 138 138 138 138 138 138 138 138 138 138 138 138 138 138 138 138 138 137 137 138 138 138 138 138 138 138 138 138 139 139 139 139 140 140 140 141 141 142 142 143 143 144 145 145 146 147 147 148 149 149 150 151 152 153 153 154 155 155 156 156 157 157 158 158 158 158 158 158 158 158 157 157 156 156 155 154 153 152 151 151 150 149 148 147 146 145 144 143 142 141 141 140 139 139 138 138 137 137 137 136 136 136 135 135 135 135 135 135 135 135 135 135 134 135 135 135 135 135 135 135 135 135 135 135 135 135 135 135 136 136 136 136 136 136 136 137 137 137 137 137 137 137 138 138 138 138 138 138 139 139 139 139 139 139 139 140 140 140 140 140 140 140 140 140 140 140 140 140 141 141 141 141 141 141 141 141 141 141 141 141 141 141 141 141 141 141 141 141 141 141 141 141 141 141 141 141 141 141 141 141 141 141 141 141 142 142 142 142 142 142 142 142 142 143 143 143 144 144 144 145 145 146 146 146 147 147 147 147 148 148 148 148 148 148 148 148 147 147 147 147 146 146 146 146 145 145 145 145 144 144 144 144 144 144 144 144 143 143 143 142 142 142 143 144 146 148 152 156 161 167 173 179 185 190 196 201 206 209 212 214 214 215 215 214 213 210 207 202 197 191 185 179 173 167 161 155 150 147 144 142 141 140 139 138 137 137 136 136 136 135 135 135 135 135 135 135 136 136 136 136 136 136 137 137 137 137 137 137 137 137 137 137 137 138 138 138 138 138 138 138 139 139 139 140 140 140 141 141 142 143 143 144 145 145 146 146 147 147 148 148 148 149 149 149 149 149 149 149 149 149 149 149 149 149 148 148 148 147 147 146 146 145 144 144 143 142 141 140 140 139 138 137 137 136 135 135 134 133 133 132 132 131 131 131 131 130 130 130 129 129 128 128 127 126 126 125 125 124 124 124 123 123 123 123 123 123 123 124 124 125 125 126 127 129 130 131 132 133 135 136 137 138 138 139 140 140 141 141 142 142 142 142 142 142 142 142 142 142 142 141 141 141 141 141 141 141 141 142 142 142 142 142 142 142 141 141 141 141 141 141 141 141 140 140 139 138 137 136 135 135 135 135 135 135 135 135 136 136 136 136 137 137 138 138 140 141 142 144 145 146 147 148 148 149 149 149 150 150 150 150 150 151 151 151 152 152 153 153 153 153 154 154 154 154 154 154 154 154 154 153 153 153 152 152 151 151 150 149 149 148 148 147 147 147 146 146 145 145 144 143 143 142 142 142 143 144 146 149 153 158 163 169 174 180 186 192 198 204 210 214 218 220 222 223 223 223 222 219 216 212 207 201 195 190 184 178 173 167 162 159 156 153 151 150 149 148 147 146 145 145 144 144 144 144 144 143 143 144 144 144 144 144 144 144 144 144 144 144 144 144 144 144 144 144 145 145 146 146 146 147 148 148 149 149 150 151 151 152 153 153 154 155 156 156 157 157 158 158 158 159 159 159 160 160 160 160 161 161 161 161 161 161 161 162 161 161 161 161 161 160 160 159 159 158 158 157 156 155 155 154 153 152 151 150 149 148 147 146 146 145 144 143 143 142 142 141 141 140 140 140 140 139 139 139 139 139 139 139 139 139 139 139 139 139 139 139 139 139 139 139 139 139 139 139 139 139 139 139 138 138 138 138 138 138 138 137 137 137 137 136 136 136 136 136 136 135 135 135 135 135 135 135 135 135 136 136 136 136 136 137 137 137 137 137 138 138 138 138 138 138 138 138 139 139 139 139 139 139 139 139 139 139 139 139 139 139 139 140 140 140 140 140 140 140 140 140 140 140 140 140 140 141 141 141 141 141 141 142 142 142 142 143 143 144 144 145 145 145 146 146 146 146 146 146 146 146 146 146 146 146 146 145 145 145 144 144 143 143 143 143 143 143 143 143 143 143 143 143 142 142 142 142 142 142 142 142 143 145 147 149 153 157 163 168 174 180 186 192 197 202 205 208 210 212 213 213 213 212 210 208 204 200 194 189 182 176 170 164 159 154 150 147 145 143 142 141 140 139 138 138 137 137 137 136 136 136 136 137 137 137 137 137 138 138 138 138 139 139 139 140 140 140 141 141 141 142 142 142 143 143 143 144 144 145 145 145 146 146 147 147 147 148 148 149 149 149 150 150 151 151 151 152 152 152 153 153 153 154 154 154 154 154 154 154 154 154 154 154 153 153 152 152 151 151 150 149 148 148 147 146 145 144 143 142 141 140 139 139 138 137 136 136 135 134 134 133 133 133 132 132 132 132 132 132 132 132 132 132 132 132 132 132 132 132 132 133 133 133 133 133 133 133 133 133 133 133 134 134 134 134 134 134 134 134 134 134 134 134 134 134 134 134 134 134 134 134 134 134 134 134 134 134 134 134 133 133 133 134 134 134 134 134 134 134 134 134 134 134 134 134 134 134 134 134 134 134 134 134 134 134 134 134 134 134 134 134 134 134 134 134 134 135 135 136 136 136 137 137 137 138 138 138 138 138 138 138 138 138 138 138 137 137 136 136 135 135 134 134 133 133 132 132 132 131 131 131 130 130 130 130 130 129 129 129 129 129 129 129 131 132 135 139 143 149 155 161 168 174 180 186 191 195 198 200 201 202 202 202 201 199 197 193 189 183 177 170 163 156 150 144 138 134 131 128 127 126 125 124 123 123 122 122 121 121 121 120 120 120 120 120 121 121 121 121 121 122 122 122 122 122 123 123 123 124 124 124 124 125 125 125 126 126 126 126 127 127 128 128 128 129 129 129 130 130 131 131 132 132 132 133 133 133 134 134 134 135 135 135 135 136 136 136 136 136 136 136 136 136 135 135 135 134 134 133 133 132 131 130 130 129 128 127 126 125 124 123 123 122 121 120 120 119 118 118 118 117 117 116 116 116 116 116 116 116 116 116 116 116 116 116 116 117 117 117 117 117 117 118 118 118 118 118 118 119 119 119 119 119 120 120 120 120 120 120 121 121 121 121 121 121 121 121 122 122 122 122 122 122 122 122 123 123 123 123 123 123 124 124 124 124 124 124 124 125 125 125 125 125 125 125 125 126 126 126 126 126 127 127 127 127 128 128 129 129 130 131 131 132 133 133 134 134 135 135 136 136 137 137 137 137 137 137 137 137 137 136 136 136 136 136 136 135 135 135 135 135 135 135 135 135 135 135 135 135 135 135 135 135 136 137 139 142 145 150 155 161 167 173 180 186 192 197 202 206 209 211 212 213 213 213 212 210 207 203 198 192 186 180 173 167 161 156 151 148 145 143 142 141 140 139 138 138 138 137 137 137 137 138 138 138 139 139 139 140 140 141 142 142 143 143 144 145 145 146 146 147 148 148 149 150 150 151 152 152 153 153 154 155 155 156 156 157 158 159 159 160 161 161 162 162 163 164 164 165 165 166 166 167 167 168 168 169 169 169 169 169 170 170 170 169 169 169 169 168 168 167 166 165 165 164 163 162 161 160 159 158 157 156 155 155 154 153 153 152 151 151 151 151 150 150 150 150 150 150 150 150 150 150 150 150 150 150 151 151 151 151 151 151 152 152 152 152 152 152 153 153 153 153 153 154 154 154 154 154 154 154 154 154 154 154 154 154 154 154 154 153 153 153 153 153 153 153 153 153 153 153 153 153 153 153 153 153 153 153 153 153 153 153 154 154 154 154 155 155 155 156 156 157 157 157 158 158 159 159 159 159 159 160 160 160 159 159 159 159 159 158 158 158 157 157 156 156 156 156 155 155 155 155 155 154 154 154 154 154 153 153 153 153 153 153 154 156 160 164 169 175 180 185 191 196 202 207 211 215 218 220 221 221 221 221 220 218 215 210 205 199 194 188 182 177 171 165 161 157 154 152 150 150 149 148 148 147 147 147 146 146 146 146 146 146 146 147 147 147 148 148 148 149 149 149 149 150 150 150 151 151 151 152 152 152 153 153 153 154 154 154 155 155 155 156 156 157 157 158 158 159 159 159 160 160 161 161 162 162 163 163 163 164 164 165 165 165 165 165 165 165 165 165 165 165 165 164 164 163 162 161 161 160 158 157 156 155 153 152 151 149 148 147 146 144 143 142 141 140 139 138 137 136 136 135 135 134 134 134 133 133 133 132 132 132 132 131 131 131 131 131 131 131 131 131 131 131 131 131 131 131 131 131 131 131 132 132 132 132 132 132 132 132 132 132 132 132 133 133 133 133 133 133 133 133 134 134 134 134 134 134 135 135 135 135 135 135 135 136 136 136 136 136 136 136 136 137 137 137 138 138 138 139 139 139 140 140 140 140 141 141 141 141 141 141 141 141 141 141 140 140 140 140 139 139 139 138 138 138 138 138 138 137 137 137 137 136 136 135 135 135 135 136 137 140 144 148 154 160 166 172 179 185 191 198 204 210 215 219 223 225 226 227 226 224 221 217 212 206 200 193 187 181 174 168 161 155 150 146 143 140 138 137 135 134 133 133 132 132 131 131 131 131 131 131 131 131 132 132 132 132 133 133 133 134 134 134 135 135 135 136 136 137 137 137 138 138 138 139 139 139 140 140 141 142 142 143 143 144 144 145 145 146 146 147 147 148 149 149 150 151 151 152 152 153 153 154 154 155 155 156 156 156 156 156 157 157 157 156 156 156 155 155 154 154 153 153 152 152 151 150 150 149 149 148 148 148 147 147 147 147 147 147 147 147 147 147 147 147 147 147 147 148 148 148 148 148 148 148 148 148 148 148 148 148 148 148 148 148 148 148 148 147 147 147 147 147 147 147 147 147 147 147 147 147 146 146 146 146 146 146 146 146 146 146 145 145 145 145 145 145 145 145 145 144 144 144 144 144 144 144 144 144 144 144 144 144 144 144 145 145 145 146 146 146 147 147 148 148 148 149 149 149 149 149 149 149 149 149 149 149 148 148 148 147 147 147 147 146 146 146 146 145 145 145 145 145 144 144 143 143 143 142 143 144 146 149 153 158 163 169 175 181 187 192 199 204 210 215 219 222 224 225 226 225 224 221 217 212 207 201 194 188 182 175 169 163 157 151 147 144 141 139 137 136 134 133 132 132 131 131 130 130 130 130 130 130 130 130 130 131 131 131 132 132 132 133 133 134 134 134 135 135 136 136 137 137 138 138 139 139 140 140 141 141 142 143 143 144 144 145 145 146 146 147 147 148 148 149 149 149 150 150 150 151 151 151 151 151 152 152 152 152 152 152 152 152 151 151 151 150 150 150 149 149 148 148 147 147 146 146 146 145 145 144 144 144 144 144 143 143 143 143 143 144 144 144 144 144 144 144 145 145 145 145 146 146 146 146 147 147 147 147 148 148 148 149 149 149 149 149 149 150 150 150 150 150 150 150 150 150 150 150 151 151 151 151 151 151 151 151 151 152 152 152 152 152 152 152 152 152 152 152 152 152 152 152 152 152 152 152 153 153 153 153 153 153 153 153 153 152 152 152 152 152 152 152 152 152 152 152 152 152 152 152 152 152 151 151 151 151 151 151 151 151 151 151 151 151 151 151 151 152 152 152 152 153 153 153 153 153 153 153 153 153 153 153 153 152 152 152 151 151 150 150 150 149 149 148 148 148 147 147 147 146 146 146 146 145 145 145 144 144 145 145 146 148 151 155 160 165 171 177 183 188 194 200 205 210 214 216 218 218 218 218 216 214 211 207 202 196 190 184 177 171 165 158 152 147 143 140 138 136 135 135 134 133 133 132 132 131 131 130 130 130 130 130 130 130 130 130 130 130 130 131 131 131 131 132 132 132 133 133 133 134 134 134 135 135 136 136 136 137 137 137 138 138 138 139 139 139 140 140 141 141 141 141 142 142 142 143 143 143 143 143 144 144 144 144 144 144 144 144 144 144 144 144 143 143 143 142 142 141 141 140 140 139 138 137 137 136 135 134 133 133 132 131 131 130 129 129 128 128 127 127 127 126 126 126 126 126 126 126 126 126 126 126 126 126 126 126 126 126 127 127 127 127 127 127 127 127 127 127 128 128 128 128 128 128 128 128 128 128 128 128 128 128 128 128 128 128 128 128 128 128 128 128 128 128 129 129 129 129 129 129 129 129 129 129 129 129 129 129 129 130 130 130 130 130 130 130 130 130 130 130 130 130 130 130 130 130 130 130 130 130 131 131 131 131 131 132 132 133 133 134 134 134 135 135 135 136 136 136 136 136 137 137 137 137 137 136 136 136 136 135 135 135 135 135 135 135 135 135 134 134 134 134 134 134 133 133 133 134 135 137 140 144 148 154 160 167 173 179 186 192 198 204 209 214 217 219 221 221 221 220 218 214 210 204 198 192 186 179 172 166 159 153 147 143 139 137 135 133 132 131 130 129 128 127 127 126 126 126 126 126 127 127 127 127 128 128 128 129 129 130 130 130 131 131 132 132 132 133 133 133 134 134 135 135 136 136 136 137 137 138 138 138 139 139 140 140 140 141 141 141 142 142 142 142 142 142 142 142 142 142 142 142 142 142 142 141 141 141 141 141 140 140 140 140 139 139 139 138 138 138 137 137 136 136 135 135 135 134 134 133 133 132 132 132 132 131 131 131 131 131 131 131 131 131 131 131 132 132 132 132 132 133 133 133 133 133 133 134 134 134 134 134 134 134 134 135 135 135 135 135 135 135 135 135 135 135 135 135 135 136 136 136 136 136 136 136 136 136 136 136 136 136 136 136 136 136 136 136 137 137 137 137 138 138 138 138 139 139 139 139 140 140 140 141 141 141 141 141 141 141 141 141 141 140 140 140 140 140 140 140 140 140 141 141 141 141 142 142 142 143 143 144 144 144 144 144 144 144 144 144 144 144 144 143 143 143 142 142 141 141 141 140 140 139 139 139 139 138 138 138 137 137 137 136 136 137 137 139 141 144 149 154 160 166 172 178 184 191 197 203 208 212 216 218 219 220 220 219 217 214 210 205 199 193 187 180 174 167 160 154 148 144 140 137 135 134 132 131 130 129 128 128 127 127 127 127 127 127 127 127 127 127 128 128 128 129 129 129 130 130 131 131 131 132 132 133 133 134 134 134 135 135 135 136 136 136 137 137 137 138 138 138 139 139 139 140 140 140 140 140 140 141 141 141 141 141 141 141 141 141 141 140 140 140 140 140 139 139 139 139 139 138 138 138 138 137 137 137 137 136 136 136 135 135 135 135 134 134 134 133 133 133 133 132 132 132 132 132 132 132 132 132 132 132 133 133 133 133 133 133 134 134 134 134 134 135 135 135 135 135 135 135 135 136 136 136 136 136 136 136 136 136 136 136 136 136 137 137 137 137 137 137 137 138 138 138 138 138 139 139 139 139 140 140 140 140 141 141 141 141 142 142 142 143 143 143 143 144 144 144 144 145 145 145 145 146 146 146 147 147 147 148 148 148 149 149 150 150 151 151 152 153 153 154 154 155 155 156 156 156 156 157 157 157 157 156 156 156 156 155 155 154 154 154 154 153 153 153 153 153 152 152 152 152 152 151 151 151 151 151 152 153 155 157 161 165 170 176 181 186 192 197 203 208 212 215 218 219 220 221 220 219 218 215 212 208 203 197 192 186 180 175 169 164 160 156 154 152 151 150 149 149 148 148 148 147 147 147 147 147 147 147 147 147 147 147 147 147 147 148 148 148 148 148 149 149 149 150 150 150 151 151 152 152 153 153 154 154 155 156 156 157 157 158 158 159 159 160 160 161 161 162 162 163 163 163 164 164 164 165 165 165 165 166 166 166 166 166 167 167 167 167 167 167 167 167 167 166 166 166 166 166 166 165 165 165 164 164 164 163 163 162 162 162 161 161 161 160 160 160 160 160 160 160 160 159 159 159 160 160 160 160 160 160 160 160 160 160 160 160 160 160 160 160 160 160 160 160 160 160 160 160 160 160 160 160 160 160 159 159 159 159 159 159 159 159 158 158 158 158 158 157 157 157 157 157 156 156 156 155 155 155 155 154 154 154 153 153 153 152 152 152 152 152 152 152 152 152 152 152 152 152 152 153 153 153 153 153 153 153 153 153 152 152 152 151 151 151 150 150 149 149 148 148 148 147 147 147 146 146 146 145 145 144 144 144 144 144 145 147 149 153 157 162 168 174 180 186 192 198 203 208 211 214 216 216 217 216 215 213 210 207 202 196 190 184 177 170 164 157 151 146 142 139 137 136 135 134 134 133 133 132 132 132 131 131 131 132 132 132 132 132 132 133 133 133 133 133 133 134 134 134 135 135 135 135 136 136 136 137 137 137 138 138 139 140 140 141 141 142 142 143 143 144 144 145 145 145 146 146 146 147 147 147 147 147 146 146 146 146 146 146 145 145 145 145 144 144 144 143 143 142 142 141 141 140 140 139 139 138 137 137 136 135 135 134 133 133 132 131 131 130 130 129 129 128 128 128 128 128 127 127 127 127 127 127 127 127 128 128 128 128 128 128 128 128 129 129 129 129 129 129 129 129 129 129 129 129 129 129 130 130 130 130 130 130 130 130 130 130 130 130 130 130 130 130 130 130 130 131 131 131 131 131 131 131 132 132 132 132 132 132 132 132 132 132 133 133 133 133 134 134 135 135 135 136 136 136 137 137 137 138 138 138 138 138 138 138 138 138 138 137 137 137 137 136 136 136 136 135 135 135 135 135 135 134 134 133 133 133 133 133 134 135 137 142 147 153 160 166 173 179 185 192 197 202 206 209 212 213 214 215 214 213 211 207 202 196 189 183 176 169 162 156 149 144 140 137 135 133 132 130 129 129 128 127 127 126 126 126 126 126 126 127 127 127 127 127 128 128 128 128 129 129 129 130 130 130 131 131 131 131 132 132 132 132 132 133 133 133 133 133 133 133 134 134 134 134 134 134 135 135 135 135 135 135 135 135 135 135 135 135 135 135 135 134 134 134 134 133 133 133 132 132 132 131 131 130 130 129 128 128 127 127 126 126 125 125 125 124 124 124 123 123 123 123 123 123 123 123 123 123 123 123 123 123 123 123 123 122 122 122 122 122 122 122 122 122 121 121 121 120 119 118 118 118 117 117 118 118 118 118 118 119 119 119 120 121 121 123 124 125 126 128 129 130 130 131 131 132 132 133 133 134 134 134 134 134 133 133 132 131 131 130 130 130 131 131 132 133 134 135 135 136 136 137 137 138 139 139 140 141 142 142 142 142 141 141 140 139 138 137 137 136 135 135 135 134 134 134 133 133 133 133 132 132 131 130 130 129 129 129 130 132 134 137 142 147 153 159 166 172 178 184 189 192 195 197 198 199 199 199 198 197 195 192 188 183 177 171 164 157 150 144 139 135 133 131 130 129 128 127 126 125 124 123 123 122 122 122 122 122 122 122 122 122 122 123 123 123 123 123 123 123 123 122 122 122 122 121 121 121 121 121 120 120 120 120 120 120 120 120 121 121 121 121 122 122 122 122 122 123 123 123 123 123 123 123 122 122 122 122 121 121 121 121 120 120 120 119 119 118 117 116 115 114 113 112 111 111 110 110 109 109 109 109 109 109 108 108 108 108 109 109 110 111 112 113 114 115 116 116 117 116 116 116 116 116 116 116 116 117 117 116 116 116 116 115 115 115 114 114 114 114 114 115 115 115 115 115 115 115 115 115 115 115 115 115 115 115 115 116 116 116 116 116 116 117 117 117 117 118 118 118 118 119 119 119 119 120 120 121 121 122 122 123 123 124 124 125 126 126 127 127 127 128 128 128 128 128 128 128 128 128 127 127 126 125 124 123 123 122 121 121 120 120 119 119 119 119 119 119 118 118 118 118 118 118 118 119 120 121 123 126 130 134 140 146 152 159 166 173 179 184 188 192 194 196 197 198 198 197 196 194 191 187 182 176 170 163 156 150 144 139 135 132 130 129 128 128 127 127 126 126 126 126 126 126 126 126 126 127 127 127 128 128 128 129 129 130 130 130 131 131 132 132 133 133 134 135 135 136 136 137 137 138 138 139 139 140 140 141 141 142 142 142 143 143 143 144 144 144 145 145 145 145 145 145 145 144 144 144 144 144 144 145 145 145 145 145 145 144 144 144 144 144 144 144 144 144 144 144 143 143 143 142 142 142 142 141 141 141 140 140 140 140 140 139 139 139 139 139 139 139 140 140 140 140 140 140 140 141 141 141 142 142 142 142 143 143 143 143 144 144 144 144 144 144 145 145 145 145 145 146 146 146 146 146 146 146 147 147 147 147 148 148 148 148 148 148 148 149 149 149 149 149 149 149 150 150 150 151 151 151 152 152 153 153 154 154 155 155 156 156 157 157 157 158 158 158 158 158 158 158 157 157 157 156 156 155 155 154 154 154 153 153 153 152 152 152 152 151 151 151 151 150 150 150 150 150 151 152 154 157 160 165 170 175 181 186 192 197 202 206 210 212 214 215 215 216 215 214 212 209 206 201 196 190 185 178 173 167 162 158 154 152 150 148 147 146 145 145 144 144 143 143 143 142 142 142 142 142 141 141 141 141 142 142 142 142 142 143 143 143 143 143 144 144 144 144 145 145 145 145 146 146 146 146 146 147 147 147 147 148 148 148 148 148 149 149 149 149 149 149 149 149 149 149 149 149 149 149 148 148 148 148 148 147 147 146 146 145 145 144 144 143 143 142 142 141 141 140 140 139 139 138 137 137 136 135 135 135 134 134 133 133 133 132 132 132 132 132 132 132 132 132 132 132 132 132 132 132 132 133 133 133 133 133 133 133 133 133 133 133 133 134 134 134 134 134 134 134 134 134 134 134 135 135 135 135 135 135 135 135 135 135 135 135 135 136 136 136 136 137 137 138 138 139 139 140 140 140 141 141 142 142 142 143 143 143 143 143 143 143 143 142 142 142 142 141 141 141 141 141 140 140 140 140 140 140 140 140 139 139 139 139 139 139 139 140 141 143 146 149 154 159 165 171 177 183 189 194 199 203 206 207 208 209 209 209 208 206 204 200 196 190 185 179 173 167 161 156 151 147 145 143 142 142 141 141 141 141 141 141 141 141 141 142 142 142 143 143 143 144 144 145 145 146 146 147 148 148 149 150 150 151 151 152 153 153 154 155 155 156 156 157 157 158 158 159 159 160 160 161 161 162 162 162 163 163 164 164 164 165 165 165 166 166 166 166 166 166 166 166 166 166 166 166 166 165 165 165 164 164 163 163 162 161 161 160 160 159 158 157 157 156 155 155 154 153 153 152 152 152 151 151 150 150 150 150 150 150 150 150 150 150 150 150 150 150 150 150 151 151 151 151 151 151 152 152 152 152 152 152 152 152 152 153 153 153 153 153 153 153 153 153 153 153 153 153 153 153 153 153 153 153 153 153 153 153 153 153 153 153 154 154 154 154 155 155 156 156 156 156 157 157 157 157 157 158 158 158 157 157 157 157 157 156 156 156 155 155 155 154 154 154 153 153 153 153 152 152 151 151 150 150 149 149 149 150 152 154 158 163 168 173 179 184 190 195 201 206 211 216 219 222 224 225 226 226 224 222 218 214 209 203 197 192 186 180 174 169 163 159 155 152 150 149 147 146 145 145 144 144 143 143 143 143 143 143 143 143 143 143 144 144 144 145 145 145 146 146 146 147 147 148 148 148 149 149 150 150 150 151 152 152 153 153 154 154 154 155 155 156 156 156 157 157 158 158 158 159 159 159 159 159 159 159 159 159 159 159 159 159 159 159 158 158 158 157 157 156 156 155 155 154 153 153 152 151 150 149 149 148 147 146 145 144 144 143 142 142 141 140 140 139 139 139 138 138 138 138 138 138 138 138 138 138 138 138 138 139 139 139 139 139 139 139 139 139 139 139 139 139 140 140 140 140 140 140 140 140 140 140 140 140 140 140 140 140 140 140 140 140 140 140 140 141 141 141 141 141 142 142 143 143 143 144 144 145 145 145 145 146 146 146 146 146 146 146 146 145 145 145 145 144 144 144 143 143 143 142 142 142 142 142 142 142 141 141 141 140 140 139 139 138 138 139 140 143 146 151 156 162 167 173 179 185 191 197 202 207 211 214 216 217 218 218 218 216 213 208 203 197 192 185 179 173 167 161 155 151 147 145 143 141 140 139 138 138 137 137 136 136 136 136 136 136 136 137 137 137 137 138 138 138 139 139 140 140 140 141 141 141 142 142 143 143 143 144 144 145 145 145 146 146 146 147 147 148 149 149 149 150 150 151 151 151 152 152 152 153 153 153 153 153 153 153 153 153 153 153 153 152 152 152 151 151 151 150 150 150 149 149 148 147 147 146 145 145 144 144 143 142 142 141 141 140 140 139 139 139 138 138 138 138 138 138 138 138 138 138 138 138 138 138 139 139 139 139 139 139 139 139 139 139 139 140 140 140 140 140 140 140 140 140 140 140 140 141 141 141 141 141 141 142 142 142 142 142 142 142 143 143 143 143 143 143 143 144 144 144 144 144 145 145 145 146 146 146 147 147 148 148 148 149 149 149 149 150 150 150 150 150 150 150 149 149 149 149 148 148 147 147 147 146 146 146 146 146 146 145 145 145 145 144 144 143 143 142 142 143 144 146 150 154 159 165 170 176 182 187 193 198 203 206 209 211 213 214 215 215 214 212 209 205 200 195 189 183 177 172 166 160 156 152 150 148 146 145 144 144 143 142 141 141 140 140 140 140 140 140 140 140 141 141 141 141 142 142 142 142 143 143 144 144 144 145 145 145 146 146 147 147 147 148 148 148 149 149 149 150 150 150 151 151 151 152 152 152 152 152 153 153 153 153 153 153 153 153 153 153 153 153 153 153 152 152 152 151 151 151 151 150 150 150 149 149 148 148 147 147 146 146 145 145 144 144 143 143 142 142 141 141 141 140 140 140 140 140 140 139 139 139 139 139 139 140 140 140 140 140 140 140 141 141 141 141 141 141 141 141 141 141 142 142 142 142 142 142 142 142 142 142 142 142 142 143 143 143 143 143 143 143 143 143 143 143 143 143 143 143 143 143 142 142 142 142 142 143 143 143 143 143 143 144 144 144 145 145 146 146 147 147 148 148 148 149 149 149 149 149 149 149 149 149 148 148 148 147 147 146 146 145 145 145 145 144 144 144 144 144 144 144 143 143 143 142 142 142 141 142 142 144 146 149 153 158 164 170 175 181 187 192 197 201 204 206 207 208 209 209 208 207 205 201 197 192 187 181 175 169 163 157 153 149 146 144 143 142 141 140 140 139 139 139 139 138 138 138 138 138 138 139 139 139 139 139 140 140 140 141 141 142 142 142 142 143 143 143 144 144 144 145 145 145 146 146 146 147 147 147 148 148 148 149 149 149 150 150 150 150 150 151 151 151 151 151 151 150 150 150 150 150 150 149 149 149 149 148 148 148 148 147 147 147 147 146 146 146 145 145 145 144 144 143 143 142 142 141 141 140 140 140 139 139 139 138 138 138 138 137 137 137 137 137 137 137 137 137 137 137 137 137 137 137 137 137 138 138 138 138 138 138 138 138 138 138 138 138 138 138 138 138 138 138 138 138 138 138 138 138 138 138 138 138 138 138 138 138 138 138 138 138 139 139 139 139 139 139 139 139 139 140 140 140 140 141 141 141 142 142 143 143 144 144 145 145 146 146 146 147 147 147 147 147 147 147 147 147 147 146 146 145 145 145 144 144 143 143 143 143 142 142 142 142 142 141 141 141 141 140 140 140 140 141 142 144 147 150 155 160 166 172 178 183 189 194 199 202 205 207 208 208 209 208 207 205 203 199 194 189 183 177 171 165 159 154 149 145 143 141 140 139 138 138 137 137 136 136 136 136 136 136 136 136 136 136 136 136 136 137 137 137 137 137 138 138 138 139 139 139 139 140 140 140 141 141 141 142 142 143 143 144 144 145 145 146 146 147 147 147 148 148 148 149 149 150 150 150 150 150 150 150 151 151 151 151 151 150 150 150 150 150 149 149 149 148 148 147 147 146 146 145 145 144 143 143 142 141 141 140 140 139 139 138 138 137 137 137 136 136 136 135 135 135 135 135 135 135 135 135 135 135 135 135 135 135 135 135 135 135 136 136 136 136 136 136 136 136 136 136 136 136 136 136 136 136 136 136 136 136 136 136 136 136 136 136 136 136 136 136 136 136 136 136 136 136 136 136 136 137 137 137 137 137 137 138 138 138 138 139 139 140 140 140 141 141 141 142 142 142 142 142 142 142 142 142 141 141 141 141 140 140 140 139 139 139 138 138 138 138 138 138 138 138 137 137 137 137 137 137 137 137 138 140 143 147 151 157 162 168 175 181 187 192 197 201 204 207 208 209 209 208 207 206 203 200 195 190 184 178 172 165 159 154 149 144 141 139 138 137 136 136 136 135 135 135 134 134 134 134 135 135 135 135 136 136 136 137 137 137 138 138 138 139 139 140 140 140 141 141 142 142 142 143 143 144 144 144 145 145 146 146 147 147 148 148 149 149 149 150 150 150 150 151 151 151 152 152 152 152 152 152 152 152 152 152 152 152 152 151 151 151 151 150 150 149 149 148 147 147 146 145 144 144 143 142 142 141 140 140 139 138 138 137 136 136 136 135 135 135 135 135 135 135 135 135 135 135 135 135 135 135 135 135 135 136 136 136 136 136 136 136 136 136 136 137 137 137 137 137 137 137 137 137 138 138 138 138 138 138 138 138 138 138 138 139 139 138 138 138 138 138 138 138 138 138 138 138 138 139 139 139 139 139 140 140 140 141 141 142 142 142 143 143 144 144 144 144 144 145 145 145 145 145 144 144 144 144 143 143 143 143 142 142 142 141 141 141 141 141 141 141 140 140 140 139 139 139 139 139 140 141 143 147 151 156 161 167 173 179 185 191 196 201 205 208 210 211 211 212 211 210 208 205 201 196 191 185 179 173 167 161 155 151 147 144 143 142 141 140 139 139 139 138 138 137 137 137 137 137 137 137 138 138 138 138 139 139 139 139 140 140 141 141 141 142 143 143 143 144 144 145 145 145 146 146 147 147 147 148 148 149 149 150 150 150 151 151 152 152 152 153 153 154 154 154 155 155 155 156 156 156 156 156 156 156 155 155 155 154 154 153 153 152 152 151 150 149 148 147 146 145 144 143 143 142 141 140 139 138 138 137 136 136 135 135 134 134 134 133 133 133 133 133 133 133 133 133 133 133 133 133 134 134 134 134 134 134 134 135 135 135 135 135 135 135 135 135 135 135 135 135 135 135 135 135 135 135 135 136 136 136 136 136 136 136 136 136 136 136 136 136 136 136 137 137 137 137 137 137 137 137 137 137 137 137 137 136 136 137 136 137 137 137 137 137 137 138 138 138 139 139 139 140 140 141 141 142 142 142 142 143 143 143 143 143 143 143 143 142 142 142 142 141 141 141 140 140 140 140 139 139 139 139 139 139 138 138 138 137 137 137 137 137 138 139 142 145 149 155 161 167 173 179 185 191 195 199 202 204 206 207 207 207 206 205 203 200 195 189 183 177 171 164 158 152 147 143 140 138 137 136 135 134 133 133 133 132 132 132 132 132 132 132 132 132 132 132 133 133 133 134 134 135 135 135 136 136 137 137 137 138 138 139 139 140 141 141 142 142 143 143 143 144 144 144 145 145 146 146 147 147 148 148 148 148 149 149 149 149 150 150 150 151 151 151 152 152 152 152 152 152 152 152 152 151 151 151 150 150 149 148 147 147 146 145 144 143 142 141 140 139 138 138 137 136 135 134 137 137 136 136 136 136 135 135 135 135 135 135 135 136 136 136 136 136 137 137 134 134 134 134 135 135 135 135 136 136 136 136 136 136 136 136 136 136 136 136 136 136 136 136 136 136 136 136 136 136 136 136 136 136 136 136 136 136 136 136 136 136 136 136 136 136 136 136 136 136 136 136 136 136 136 136 136 136 136 136 136 137 137 137 137 137 138 138 138 138 138 138 138 138 138 138 138 138 139 139 139 139 139 139 139 139 139 139 139 139 139 139 139 140 140 140 140 140 140 140 140 140 140 141 141 141 141 141 141 141 141 141 141 142 142 142 142 142 143 143 143 144 144 144 145 145 145 146 146 147 148 148 148 149 149 149 149 149 149 149 149 149 149 149 149 149 149 149 148 148 148 148 148 147 147 147 147 147 147 147 147 146 146 145 145 145 146 148 150 153 158 163 168 174 179 184 190 195 201 206 210 214 217 219 220 221 221 220 218 215 211 207 201 196 190 185 179 173 168 163 158 154 152 149 148 146 145 144 143 142 142 141 141 141 140 140 140 140 140 140 141 141 141 141 141 142 142 142 143 143 144 144 144 145 145 146 146 146 147 147 148 148 149 149 149 150 150 151 151 151 152 152 153 153 153 154 154 154 155 155 155 155 156 156 156 156 157 157 157 157 157 157 157 157 157 157 157 156 156 156 155 155 154 154 153 152 151 151 150 149 148 147 147 146 145 144 143 143 142 141 141 140 140 139 139 139 138 138 138 138 138 137 137 137 137 137 137 137 137 137 137 137 138 138 138 138 138 138 138 138 138 138 138 138 138 138 138 138 138 138 138 138 138 138 138 138 138 138 138 138 138 138 138 138 138 138 138 138 138 138 138 138 138 138 138 138 138 138 138 138 139 139 139 139 139 139 139 139 139 139 139 139 139 139 139 139 139 139 139 139 139 139 139 139 139 139 139 139 139 139 139 139 139 139 139 139 139 139 139 139 140 140 140 140 140 140 140 140 140 141 141 141 141 141 141 141 141 141 142 142 142 142 142 142 142 142 142 142 142 142 142 143 143 143 143 143 143 143 143 143 144 144 144 144 144 144 144 144 144 144 145 145 145 145 145 145 145 145 145 145 145 145 145 146 146 146 147 147 147 148 148 148 149 149 149 150 150 150 151 151 151 152 152 152 151 151 151 150 150 150 149 149 149 149 148 148 148 147 147 147 147 146 146 146 146 145 145 145 145 145 145 146 148 150 153 157 162 168 173 179 184 189 195 199 203 206 209 210 211 212 211 211 210 207 204 200 195 190 184 178 173 167 161 156 152 149 146 144 143 142 141 140 140 139 138 138 137 137 137 137 137 137 137 137 137 137 137 138 138 138 138 138 139 139 139 140 140 140 140 141 141 141 141 142 142 142 143 143 143 144 144 144 145 145 145 145 145 146 146 147 147 147 148 148 148 148 149 149 149 149 149 149 149 150 150 150 149 149 149 149 148 148 148 147 147 147 146 146 145 144 143 143 142 141 140 139 139 138 137 137 136 135 134 133 132 131 131 130 130 129 129 129 128 128 128 128 127 127 127 127 127 127 127 127 127 127 127 127 127 127 127 127 127 127 126 127 127 127 126 126 126 126 126 126 126 126 126 126 126 126 126 126 125 125 125 125 125 125 125 125 125 125 124 124 124 124 124 124 124 123 123 123 123 123 123 123 123 123 122 122 122 122 121 121 121 121 121 121 121 120 120 120 120 120 120 119 119 119 119 119 119 119 119 119 119 119 118 118 118 118 118 118 118 118 118 118 118 118 118 118 118 118 118 118 118 118 118 118 118 118 118 117 117 117 117 117 117 117 117 117 117 117 117 117 117 117 118 118 118 118 118 118 118 118 118 118 118 118 118 118 118 118 118 118 118 118 119 119 119 119 120 120 120 121 121 121 122 122 122 122 123 123 123 123 123 123 123 123 123 123 122 122 122 122 122 121 121 121 121 120 120 120 120 120 119 119 119 118 118 118 119 120 121 124 127 131 136 142 149 156 163 169 175 181 185 189 192 193 195 195 195 195 194 191 188 184 179 173 167 160 153 147 141 135 131 127 125 123 122 121 121 120 120 119 119 119 119 119 119 120 120 120 121 121 122 122 123 124 124 125 125 126 126 127 127 128 128 129 129 130 131 131 132 132 133 133 134 134 135 136 136 137 137 138 139 139 140 141 141 142 142 143 143 144 145 145 146 146 147 147 148 148 148 149 149 149 150 150 150 150 150 150 150 150 150 149 149 148 148 147 147 146 145 145 144 143 142 141 140 140 139 138 138 137 136 136 135 135 135 135 134 134 134 134 134 135 135 135 135 135 136 136 136 137 137 137 138 138 138 138 139 139 139 140 140 140 140 141 141 141 141 142 142 142 142 142 143 143 143 143 143 144 144 144 144 144 144 145 145 145 145 145 145 145 145 146 146 146 146 146 146 146 146 146 146 146 147 147 147 147 147 147 147 147 147 148 148 148 148 148 148 148 149 149 149 149 149 149 150 150 150 150 150 150 151 151 151 151 151 151 151 152 152 152 152 152 152 152 153 153 153 153 153 153 153 153 154 154 154 154 154 154 154 155 155 155 155 156 156 157 157 157 158 158 158 159 159 159 160 160 160 160 160 160 160 160 160 160 160 160 159 159 159 159 158 158 158 158 158 157 157 157 157 157 156 156 156 155 155 156 156 158 160 162 166 171 176 180 186 191 195 200 205 209 212 215 217 218 219 219 218 217 216 213 209 205 200 195 189 184 179 174 169 165 161 159 157 156 155 154 153 153 152 152 151 151 151 151 151 151 151 151 152 152 152 152 153 153 153 153 154 154 154 155 155 155 156 156 156 157 157 158 158 158 159 159 160 160 161 161 162 162 163 164 164 165 165 166 166 167 167 168 168 169 169 170 170 171 171 172 172 172 173 173 173 173 173 173 173 173 173 173 172 172 171 171 170 169 168 168 167 166 165 164 163 161 160 159 158 157 156 155 154 154 153 152 152 151 150 150 150 149 149 149 149 148 148 148 148 148 148 148 148 148 149 149 149 149 149 149 149 149 150 150 150 150 150 150 150 150 150 150 150 151 151 151 151 151 151 151 151 151 151 151 151 151 151 151 151 151 151 151 151 151 151 151 151 151 152 152 152 152 152 152 152 152 152 152 152 152 152 153 153 153 153 153 153 153 153 153 153 153 153 153 153 153 153 153 153 153 153 153 153 153 153 153 153 153 153 153 153 153 154 154 154 154 154 154 154 154 154 154 155 155 155 155 156 156 156 157 157 157 158 158 158 158 159 159 159 159 159 159 159 159 159 158 158 158 158 157 157 156 156 156 156 155 155 155 154 154 154 154 153 153 153 152 152 151 151 152 152 154 156 159 162 167 172 177 182 187 192 197 202 206 209 211 213 214 215 215 214 213 211 209 205 200 195 190 184 179 174 168 163 159 156 153 151 150 149 148 147 147 146 145 145 144 144 144 144 144 144 144 144 144 144 144 145 145 145 145 145 146 146 146 147 147 147 148 148 149 149 149 150 150 151 151 151 152 152 153 153 153 154 154 155 155 156 156 157 157 158 158 159 159 159 160 160 161 161 162 162 162 163 163 163 163 163 164 163 163 163 163 162 162 161 160 160 159 158 157 156 155 154 153 152 151 150 149 148 147 146 145 144 143 143 142 142 141 140 140 140 139 139 139 139 138 138 138 138 138 138 138 138 138 138 139 139 139 139 139 139 139 139 139 139 139 139 139 139 139 139 140 140 140 140 140 140 140 140 140 140 140 140 140 140 140 140 141 141 141 141 141 141 141 141 141 141 141 141 141 142 142 142 142 142 142 142 142 142 142 142 142 142 142 142 142 142 142 142 141 141 141 142 142 142 142 142 142 142 142 142 142 142 142 142 142 142 142 142 142 142 142 142 142 142 142 142 143 143 143 143 143 143 143 143 143 144 144 144 144 145 145 146 146 146 147 147 148 148 148 148 148 149 149 149 149 149 149 149 148 148 148 147 147 147 146 146 146 145 145 145 145 144 144 144 144 144 143 143 143 142 142 142 141 142 142 144 145 148 152 156 162 167 173 179 184 190 195 199 203 206 208 209 210 210 210 209 207 204 201 196 191 185 179 173 167 161 156 151 147 144 142 141 139 139 138 137 136 136 135 135 134 134 134 134 134 134 134 134 135 135 135 135 135 136 136 136 137 137 137 138 138 138 139 139 139 140 140 140 141 141 141 142 142 143 143 144 144 145 145 146 146 147 147 148 148 149 149 150 150 151 151 151 152 152 152 153 153 153 153 153 153 154 154 153 153 153 153 152 152 151 151 150 149 148 148 147 146 145 144 143 142 141 140 139 138 137 137 136 135 135 134 134 133 133 132 132 132 132 132 131 131 131 131 131 131 132 132 132 132 132 132 132 132 133 133 133 133 133 133 134 134 134 134 134 134 135 135 135 135 135 135 135 135 135 135 135 135 136 136 136 136 136 136 136 136 136 136 136 136 137 137 137 137 137 137 137 137 137 137 137 137 137 137 137 137 137 137 137 137 137 137 137 137 137 137 138 138 138 138 138 138 138 138 138 138 138 138 139 139 139 139 139 139 139 139 139 139 139 139 139 140 140 140 140 140 140 140 140 140 140 140 140 140 140 140 141 141 141 141 142 142 142 143 143 143 144 144 145 145 145 146 146 146 146 146 146 146 146 146 146 146 146 146 145 145 145 144 144 144 144 143 143 143 143 143 143 142 142 142 141 141 141 141 142 143 144 147 150 154 159 164 170 176 181 187 192 198 202 206 209 211 212 213 213 213 212 210 207 203 198 193 187 181 176 170 164 159 155 151 148 146 144 143 142 141 140 140 139 138 138 138 138 137 137 137 137 138 138 138 138 138 139 139 139 140 140 140 140 141 141 141 142 142 142 143 143 144 144 144 145 145 145 146 146 147 147 147 148 148 149 149 149 150 150 151 151 152 152 152 153 153 153 153 154 154 154 154 155 155 155 155 155 155 155 154 154 154 153 153 152 152 151 150 150 149 148 147 147 146 145 144 143 142 142 141 140 139 139 138 138 137 137 136 136 136 135 135 135 135 135 135 135 135 135 135 135 135 135 135 135 136 136 136 136 136 136 136 137 137 137 137 137 137 137 137 137 138 138 138 138 138 138 138 138 138 138 138 138 138 138 139 139 139 139 139 139 139 139 139 139 139 139 139 139 139 139 139 139 139 139 139 139 139 139 139 139 139 139 139 140 139 139 140 140 140 140 140 140 140 140 140 140 140 140 140 140 140 140 140 140 141 141 141 141 141 141 141 141 141 141 142 142 142 142 142 142 143 143 143 144 144 144 145 145 146 146 147 147 147 148 148 148 148 149 149 149 149 149 149 148 148 148 148 147 147 147 146 146 146 145 145 145 145 144 144 144 144 144 143 143 143 143 143 143 143 144 146 148 151 155 160 165 171 176 182 188 193 198 202 205 207 209 210 211 211 210 209 207 204 200 195 190 184 178 172 167 161 156 152 149 146 144 143 142 141 140 139 139 138 138 137 137 137 137 137 137 137 137 137 138 138 138 138 139 139 139 140 140 140 141 141 142 142 142 143 143 144 144 145 145 145 146 146 147 147 147 148 148 149 149 150 150 150 151 151 151 152 152 152 153 153 153 154 154 154 154 155 155 155 155 155 155 155 155 155 155 154 154 153 153 153 152 151 151 150 149 148 147 147 146 145 144 143 142 142 141 140 139 139 138 138 137 137 137 136 136 136 136 135 135 135 135 135 135 135 135 135 135 135 135 136 136 136 136 136 136 136 136 136 137 137 137 137 137 137 137 137 137 137 137 138 138 138 138 138 138 138 138 138 138 138 139 139 139 139 139 139 139 139 139 139 139 140 140 140 140 140 140 140 140 140 140 140 140 140 140 140 140 140 141 141 141 141 141 141 141 141 141 141 141 141 141 141 141 141 141 141 142 142 142 142 142 142 142 142 142 142 142 142 143 143 143 143 144 144 144 145 145 145 146 146 147 147 147 148 148 148 148 149 149 149 149 148 148 148 148 147 147 147 146 146 146 146 145 145 145 145 144 144 144 144 144 144 144 143 143 143 143 143 143 144 145 148 151 155 159 165 170 176 181 187 192 196 199 202 204 205 207 207 207 207 206 204 201 197 192 186 180 175 169 164 159 154 151 148 146 144 143 142 141 141 140 140 139 139 139 139 139 139 139 139 139 139 139 139 140 140 140 140 141 141 141 142 142 142 143 143 143 143 144 144 144 145 145 145 146 146 146 147 147 147 148 148 148 149 149 149 150 150 150 150 151 151 151 152 152 152 152 153 153 153 153 153 154 154 154 154 154 154 153 153 153 153 152 152 151 151 150 150 149 148 147 147 146 145 144 143 142 141 140 140 139 138 137 137 136 136 135 135 135 134 134 134 134 134 134 134 134 134 134 134 134 134 134 134 134 134 134 134 135 135 135 135 135 135 135 135 135 135 135 136 136 136 136 136 136 136 136 136 136 136 136 136 136 136 136 136 136 136 136 137 137 137 137 137 137 137 137 137 137 137 138 138 138 138 138 138 138 138 138 138 138 138 138 138 138 138 138 138 139 139 139 139 139 139 139 139 139 139 139 139 139 140 140 140 140 140 141 141 141 141 142 142 143 143 144 144 145 145 146 147 147 147 148 148 148 148 148 148 148 148 148 148 148 148 148 147 147 147 146 146 146 146 145 145 145 145 145 145 145 145 145 145 144 144 144 144 145 145 147 149 152 155 159 165 170 175 181 186 191 196 200 204 207 209 210 211 212 212 211 209 207 204 200 195 190 184 179 173 168 162 158 154 152 150 148 147 146 145 145 144 143 143 142 142 142 142 142 143 143 143 144 144 144 144 145 145 145 146 146 146 147 147 147 148 148 148 149 149 149 150 150 151 151 151 151 152 152 152 152 153 153 154 154 155 155 156 156 156 157 157 157 157 157 157 157 158 158 159 159 159 159 159 159 159 159 158 158 157 157 157 156 156 156 155 155 154 153 152 151 150 149 148 147 146 145 143 142 141 141 140 139 139 137 136 135 134 132 131 130 129 128 128 128 128 128 129 129 129 130 130 130 131 132 133 134 136 137 139 140 141 142 142 143 143 143 143 143 143 143 143 142 142 141 140 140 139 138 137 137 137 136 136 135 135 135 135 134 134 134 134 134 134 133 133 133 133 133 133 132 132 132 132 132 132 133 133 133 132 132 132 132 132 132 132 132 132 132 132 132 132 132 132 132 132 133 133 134 134 135 135 136 136 137 137 138 138 138 139 139 139 139 139 139 139 139 138 138 138 137 137 136 136 135 135 134 133 133 132 131 131 130 129 129 128 128 127 127 126 126 126 125 125 125 125 125 125 126 128 131 134 138 143 149 155 161 168 174 179 185 189 192 195 197 198 199 199 199 198 196 193 189 184 178 172 166 160 153 148 142 138 134 132 130 128 127 126 125 124 124 123 123 122 122 122 122 122 122 122 122 122 122 122 123 123 123 123 123 123 124 124 124 124 125 125 125 126 126 126 127 127 127 127 128 128 128 128 128 129 129 129 129 129 130 130 130 130 131 131 131 132 132 132 132 132 133 133 133 134 134 134 135 135 135 135 135 135 135 135 135 135 135 135 134 134 134 133 133 132 132 131 131 130 129 129 128 127 127 126 126 125 125 124 124 124 123 123 123 123 122 122 122 122 122 122 122 123 123 123 123 124 124 124 124 124 124 124 124 125 125 125 125 126 126 126 126 126 126 126 126 126 126 126 126 126 126 126 126 126 126 126 126 126 126 126 126 126 126 127 127 127 127 127 127 127 127 127 127 128 128 129 129 129 130 130 131 131 131 131 132 132 133 133 134 135 135 136 136 137 137 137 138 138 139 139 140 140 140 141 141 141 141 141 141 141 141 141 141 141 141 140 140 140 139 139 139 139 138 138 138 137 137 137 137 137 137 137 137 137 136 136 136 136 136 136 136 137 139 141 144 148 152 158 163 169 175 181 186 190 194 197 199 201 202 202 203 202 202 200 197 194 190 185 179 173 167 162 157 153 149 147 145 144 143 142 142 141 140 140 140 140 140 140 140 140 140 140 140 140 140 140 140 141 141 141 141 142 142 142 143 143 144 144 144 145 145 146 146 146 147 147 148 148 149 149 150 150 151 151 152 152 152 153 153 154 154 155 155 156 156 156 157 157 157 157 158 158 158 158 158 158 158 158 158 158 157 157 156 156 156 155 154 154 153 153 152 152 151 150 150 149 149 148 147 147 146 146 146 145 145 144 144 144 144 144 144 144 143 143 143 143 143 143 143 143 143 143 144 144 144 144 144 144 144 145 145 145 145 145 145 145 145 146 146 146 146 146 146 146 146 146 146 146 146 146 147 147 147 147 147 147 147 147 147 147 147 148 148 148 148 148 148 148 149 149 149 149 149 149 150 150 150 150 150 151 151 151 152 152 152 153 153 154 154 155 155 156 156 156 156 156 157 157 157 157 157 156 156 156 156 156 155 155 154 154 154 153 153 153 152 152 152 152 152 152 152 152 151 151 151 151 151 151 152 153 155 157 161 165 170 175 180 185 191 196 200 205 208 211 213 215 215 216 216 215 213 211 208 204 199 194 189 184 178 173 168 164 160 158 156 154 153 152 152 151 151 150 150 150 150 149 149 149 149 149 150 150 150 150 150 150 151 151 151 152 152 152 152 153 153 153 154 154 155 155 155 156 156 156 157 157 157 158 158 159 159 159 160 160 160 161 161 161 161 162 162 162 162 163 163 163 163 163 163 163 163 163 163 163 163 163 162 162 162 161 161 161 160 160 159 159 158 157 157 156 155 154 154 153 152 151 151 150 149 149 148 147 147 147 146 146 145 145 145 145 144 144 144 144 144 144 144 144 144 144 145 145 145 145 145 145 145 145 146 146 146 146 146 146 146 146 146 146 146 146 146 146 146 146 146 146 146 146 146 146 146 146 145 145 145 145 145 145 145 145 145 145 145 145 145 145 145 145 145 145 145 145 145 145 145 145 146 146 146 146 147 147 147 148 148 148 148 149 149 149 149 149 149 149 149 149 148 148 148 147 147 147 146 146 146 145 145 145 144 144 144 144 144 143 143 142 142 142 141 141 141 142 143 145 148 151 156 161 167 173 179 184 190 195 200 204 206 208 209 210 210 210 209 208 205 201 197 191 186 179 174 168 162 156 151 147 145 143 142 141 140 140 139 138 138 137 137 137 137 137 137 137 137 137 137 137 137 137 137 138 138 138 138 139 139 139 139 140 140 140 140 141 141 141 142 142 142 143 143 143 144 144 145 145 145 146 146 146 147 147 148 148 148 148 149 149 149 150 150 150 150 150 150 150 151 151 151 150 150 150 150 149 149 149 148 148 147 147 146 145 144 144 143 142 141 140 139 138 138 137 136 136 135 134 134 133 133 132 132 132 131 131 131 131 131 130 130 130 130 130 130 130 130 131 131 131 131 131 131 131 131 132 132 132 132 132 132 132 132 132 132 132 132 132 132 133 133 133 133 133 133 133 133 133 133 133 133 133 133 133 133 133 133 133 133 133 133 133 133 134 134 134 134 135 135 135 136 136 137 137 137 138 138 138 138 138 139 139 139 139 139 138 138 138 138 137 137 137 136 136 135 135 135 134 134 134 134 134 133 133 133 133 133 132 132 131 131 131 131 131 133 135 137 141 147 153 159 165 171 176 182 186 190 193 196 197 199 200 200 200 200 198 195 192 186 180 174 168 162 156 150 146 142 139 137 135 134 133 132 131 131 130 130 129 129 129 129 129 129 129 130 130 130 130 131 131 132 132 132 133 133 133 134 134 135 135 135 136 136 136 137 137 137 138 138 139 139 139 140 140 140 141 141 142 142 142 143 143 144 144 144 144 145 145 145 145 146 146 146 146 146 146 146 146 146 146 146 146 145 145 145 144 144 144 143 143 142 142 141 140 140 139 138 138 137 137 136 136 135 135 134 134 134 133 133 133 133 133 133 133 133 133 133 133 133 133 133 133 134 134 134 134 134 135 135 135 135 135 136 136 136 136 136 137 137 137 137 137 137 137 137 138 138 138 138 138 138 138 138 138 138 138 138 138 139 139 139 139 139 139 139 139 139 139 139 139 139 139 139 139 140 140 140 140 140 141 141 141 142 142 142 143 143 144 144 144 145 145 145 146 146 146 146 146 146 146 146 145 145 145 145 144 144 144 143 143 143 143 142 142 142 142 142 142 142 142 141 141 141 140 140 140 141 142 144 148 152 156 162 167 173 179 184 189 194 198 201 204 206 207 208 208 209 208 206 203 199 195 189 184 178 173 167 162 158 154 151 149 147 146 145 145 144 143 143 143 142 142 142 142 142 142 142 142 142 143 143 143 143 144 144 144 145 145 145 146 146 147 147 147 148 148 149 149 149 150 150 151 151 152 152 152 153 153 153 154 154 154 155 155 155 156 156 156 156 157 157 157 157 157 157 158 158 158 158 158 158 158 158 157 157 157 157 157 156 156 155 155 154 154 153 153 152 151 151 150 149 148 148 147 146 146 145 144 144 143 143 142 142 142 142 141 141 141 141 141 141 141 141 141 141 141 141 141 141 141 141 141 141 142 142 142 142 142 142 142 142 142 142 142 142 142 142 142 142 142 142 142 142 142 142 142 142 142 142 142 142 142 142 142 142 142 142 142 142 142 142 142 142 142 142 142 142 142 142 142 142 142 142 142 142 142 142 142 142 142 143 143 143 143 143 144 144 144 144 145 145 146 146 147 147 147 148 148 148 149 149 149 149 149 149 149 148 148 148 148 147 147 147 146 146 146 145 145 145 145 145 145 144 144 144 144 144 143 143 143 143 143 144 145 147 150 154 159 164 169 175 180 186 191 197 201 205 208 210 211 212 212 212 211 209 206 202 197 192 186 180 175 168 163 157 153 149 146 143 142 141 140 139 138 137 137 136 136 136 136 135 135 136 136 136 136 136 136 137 137 137 137 138 138 138 139 139 139 140 140 141 141 142 142 142 143 143 144 144 145 145 146 146 147 147 148 148 149 149 150 150 151 151 151 152 152 152 152 153 153 153 153 153 153 153 153 153 153 153 153 153 153 153 152 152 151 151 150 150 149 149 148 147 146 146 145 144 143 142 142 141 140 140 139 139 138 138 137 137 137 136 136 136 136 136 136 136 136 136 136 136 136 136 137 137 137 137 137 137 138 138 138 138 138 138 138 138 138 139 139 139 139 139 139 139 139 139 139 139 139 139 139 139 139 140 140 140 140 140 140 140 140 140 140 140 140 140 140 140 140 140 140 141 141 141 141 141 141 141 141 141 141 141 141 141 141 141 141 141 141 141 141 142 142 142 142 142 142 142 142 142 142 142 142 142 142 142 142 142 142 143 143 143 143 144 144 145 145 146 146 146 147 147 147 148 148 148 148 148 148 148 148 148 148 148 147 147 147 146 146 146 146 145 145 145 144 144 144 144 144 144 143 143 143 142 142 142 142 143 145 147 150 154 159 164 170 175 181 186 192 197 202 206 209 211 213 214 214 214 213 211 209 205 200 195 189 183 178 172 166 161 156 152 148 146 144 142 141 140 139 138 137 137 136 136 136 135 135 135 135 135 135 135 135 135 136 136 136 136 137 137 137 137 138 138 138 139 139 140 140 141 141 141 142 142 143 143 144 144 144 145 145 146 146 147 147 147 148 148 148 148 149 149 149 149 150 150 150 150 150 150 150 150 150 150 150 150 150 150 150 149 149 149 148 148 147 147 146 146 145 144 144 143 142 142 141 140 140 139 139 138 137 137 137 136 136 136 135 135 135 135 135 135 135 135 135 135 135 135 135 136 136 136 136 136 136 136 136 137 137 137 137 137 137 137 137 138 138 138 138 138 138 138 138 138 138 138 138 138 138 138 138 138 138 138 138 138 138 138 138 138 138 138 138 138 138 138 138 138 139 139 139 139 139 139 139 139 139 139 139 139 139 139 140 140 140 140 140 140 140 140 140 140 140 140 140 140 141 141 141 141 141 141 141 141 141 141 141 141 141 141 141 142 141 142 142 142 142 142 142 142 142 142 142 142 143 143 143 143 143 144 144 144 145 145 146 146 147 147 147 147 148 148 148 148 148 148 148 148 148 148 148 147 147 147 146 146 146 145 145 145 145 144 144 144 144 144 144 143 143 143 143 143 143 143 145 147 150 153 158 163 169 174 180 185 190 195 199 202 204 206 208 208 209 209 208 206 203 200 195 190 185 179 173 168 162 157 153 150 147 145 144 143 142 141 140 140 139 139 138 138 138 138 138 138 138 138 138 138 139 139 139 139 140 140 140 141 141 141 142 142 143 143 143 144 144 144 145 145 146 146 146 147 147 148 148 148 149 149 150 150 151 151 151 152 152 152 153 153 153 153 153 154 154 154 154 154 154 154 154 154 153 153 153 153 153 152 152 152 151 151 151 150 150 149 149 148 147 147 146 146 145 145 144 143 143 142 142 141 141 141 140 140 140 140 139 139 139 139 139 139 139 139 139 139 139 139 139 139 140 140 140 140 140 140 140 140 140 140 140 140 141 141 141 141 141 141 141 141 141 141 141 141 141 141 141 141 141 141 141 141 141 141 141 141 141 141 141 141 141 141 141 141 141 141 141 141 141 141 141 141 141 141 141 141 141 141 141 141 141 141 141 141 141 142 142 141 141 141 141 141 142 142 142 142 142 142 142 142 142 142 142 142 142 142 142 142 142 142 142 142 142 142 142 143 143 143 143 143 143 143 143 143 144 144 144 144 144 145 145 145 146 146 147 147 147 148 148 148 149 149 149 149 150 150 150 150 149 149 149 149 148 148 148 147 147 147 146 146 146 146 145 145 145 145 145 144 144 144 144 143 143 143 144 145 147 149 152 156 161 167 172 178 183 189 194 198 202 205 207 208 209 209 209 208 206 204 201 196 191 186 180 174 168 162 157 152 148 145 143 141 140 139 138 138 137 137 136 136 135 135 135 135 135 135 135 135 135 135 136 136 136 136 137 137 137 138 138 138 139 139 140 140 140 141 141 142 142 142 143 143 144 144 145 145 146 146 147 147 147 148 148 149 149 149 150 150 150 151 151 151 151 152 152 152 152 152 152 152 152 152 152 151 151 151 151 150 150 149 149 148 148 147 146 146 145 144 144 143 142 142 141 140 139 139 138 138 137 137 136 136 135 135 135 134 134 134 134 134 134 134 134 134 134 134 134 134 134 134 134 134 134 134 134 134 134 134 135 135 135 135 135 135 135 135 135 135 136 136 136 136 136 136 136 136 136 137 137 137 137 137 137 137 137 137 137 137 137 138 138 138 138 138 138 138 138 138 138 138 139 139 139 139 139 139 139 139 139 139 140 140 140 140 140 140 140 140 140 140 140 140 140 140 140 140 140 140 140 140 140 140 140 140 140 140 140 140 140 140 140 140 140 140 140 140 141 141 141 141 142 142 143 143 144 144 145 145 145 146 146 147 147 147 147 147 147 147 147 147 147 147 147 146 146 146 145 145 145 145 145 144 144 144 144 144 144 143 143 142 142 142 143 144 146 148 152 157 162 167 173 179 184 189 195 200 204 207 210 212 214 214 214 214 212 210 206 202 197 191 185 179 174 168 162 157 152 149 146 144 142 141 140 139 138 137 136 136 135 135 135 135 135 135 135 135 135 135 136 136 136 136 136 137 137 137 138 138 139 139 139 140 140 140 141 141 142 142 142 143 143 144 144 145 145 146 146 147 147 147 148 148 149 149 150 150 150 151 151 151 151 152 152 152 152 152 152 153 153 153 152 152 152 152 152 151 151 150 150 149 149 148 147 147 146 145 144 144 143 142 141 140 140 139 138 138 137 137 136 136 135 135 135 134 134 134 134 134 134 134 134 134 134 134 134 134 135 135 135 135 135 135 135 136 136 136 136 136 136 137 137 137 137 137 137 137 137 138 138 138 138 138 138 138 138 138 139 139 139 139 139 139 139 139 139 139 140 140 140 140 140 140 140 141 141 141 141 141 141 141 141 141 141 141 142 142 142 142 142 142 142 142 142 142 142 142 142 142 142 142 142 142 142 143 143 143 143 143 143 143 143 143 143 143 143 143 143 143 143 143 143 144 144 144 144 144 145 145 145 146 146 147 147 148 148 149 149 149 150 150 150 150 150 150 150 150 150 150 149 149 149 148 148 148 147 147 146 146 146 146 145 145 145 145 144 144 144 143 143 143 143 144 145 147 150 153 158 163 169 174 180 185 190 195 200 204 207 209 211 212 212 212 211 209 207 203 199 193 188 182 176 171 165 159 155 150 147 145 143 142 141 140 139 138 138 137 137 136 136 136 136 136 136 136 136 136 137 137 137 137 138 138 138 139 139 139 140 140 141 141 141 142 142 142 143 143 144 144 145 145 145 146 146 147 147 147 148 148 149 149 149 150 150 150 151 151 151 151 151 152 152 152 152 152 152 152 152 152 152 152 152 152 151 151 151 150 150 149 149 148 147 147 146 145 144 143 143 142 141 140 140 139 138 138 137 137 136 136 136 135 135 135 135 135 135 135 135 135 135 135 135 136 136 136 136 136 136 137 137 137 137 137 137 137 137 138 138 138 138 138 138 138 138 138 138 138 138 139 139 139 139 139 139 139 139 140 140 140 140 140 140 140 141 141 141 141 141 141 141 141 141 141 141 141 141 141 141 141 141 142 142 142 142 142 142 142 142 142 142 142 142 142 142 142 142 143 143 143 143 143 143 143 143 143 143 143 143 143 143 143 143 143 143 143 143 143 143 143 143 144 144 144 144 145 145 146 146 146 147 147 147 148 148 148 148 149 149 149 149 149 148 148 148 148 147 147 147 146 146 146 145 145 145 144 144 144 144 144 143 143 143 143 142 142 142 142 143 144 146 148 151 156 160 166 171 177 182 188 193 197 201 204 206 207 208 208 208 208 206 204 201 197 192 186 181 175 169 164 159 154 150 147 145 143 142 141 140 140 139 139 138 138 138 137 137 137 137 137 137 137 137 138 138 138 138 139 139 139 139 140 140 140 141 141 141 142 142 142 143 143 143 144 144 144 145 145 145 146 146 147 147 148 148 148 149 149 150 150 150 151 151 151 152 152 152 152 153 153 153 153 153 153 153 153 153 153 153 152 152 152 151 151 151 150 149 149 148 147 147 146 145 144 144 143 142 142 141 140 140 139 139 138 138 137 137 137 136 136 136 136 136 136 136 135 135 135 136 136 136 136 136 136 136 136 136 136 136 137 137 137 137 137 137 137 137 138 138 138 138 138 138 138 139 139 139 139 139 139 139 139 139 139 139 140 140 140 140 140 140 140 140 140 140 140 140 140 140 140 141 141 141 141 141 141 141 141 141 141 141 141 141 141 141 141 141 141 141 141 141 141 141 141 141 141 141 141 141 141 141 141 141 141 141 141 141 141 141 141 141 142 142 142 142 142 143 143 143 144 144 144 145 145 145 146 146 146 147 147 147 147 147 147 146 146 146 146 145 145 145 144 144 144 143 143 142 142 142 142 142 141 141 141 141 140 140 140 140 140 140 140 141 142 145 148 151 156 161 167 173 178 184 189 194 197 200 202 204 205 205 205 204 203 201 198 194 189 183 178 172 166 160 154 149 145 142 140 138 137 136 135 134 134 133 133 132 132 132 132 131 131 131 132 132 132 132 132 133 133 133 133 133 134 134 134 135 135 135 136 136 136 137 137 137 138 138 138 139 139 140 140 140 141 141 142 142 143 143 143 144 144 144 145 145 145 146 146 146 146 146 146 147 147 147 147 147 147 147 146 146 146 145 145 145 144 144 143 143 142 141 141 140 139 139 138 137 136 136 135 134 134 133 132 132 132 131 131 130 130 130 129 129 129 129 129 129 129 129 129 129 129 129 129 129 129 129 129 129 129 129 130 130 130 130 130 130 130 130 130 130 130 130 130 130 130 130 131 131 131 131 131 131 131 131 131 131 131 131 131 131 131 131 131 131 131 131 131 131 131 131 131 132 132 132 132 132 132 132 132 132 132 132 132 132 132 132 132 132 132 132 132 133 133 133 133 133 133 133 133 133 133 133 133 133 133 133 133 134 134 134 134 134 134 135 135 136 136 136 137 137 138 138 139 139 139 140 140 140 140 141 141 141 141 140 140 140 140 139 139 139 138 138 138 138 137 137 137 137 137 137 137 136 136 136 136 136 136 136 137 138 139 142 145 149 154 160 166 172 178 183 188 193 197 200 202 203 204 205 205 204 203 200 197 193 189 183 177 171 165 159 154 149 145 142 140 138 137 136 136 135 134 134 133 133 133 133 132 132 133 133 133 133 133 133 134 134 134 134 135 135 135 136 136 137 137 137 138 138 139 139 140 140 141 141 142 142 142 143 143 144 144 145 145 146 146 147 147 148 148 149 149 149 150 150 150 151 151 151 152 152 152 152 152 152 153 153 153 152 152 152 152 151 151 150 150 149 149 148 147 146 146 145 144 143 143 142 141 140 140 139 139 138 138 137 137 137 136 136 136 136 136 136 136 136 136 136 136 136 136 136 137 137 137 137 137 138 138 138 138 138 138 139 139 139 139 139 139 139 140 140 140 140 140 140 140 141 141 141 141 141 141 141 141 141 142 142 142 142 142 142 142 142 142 142 142 142 142 142 143 143 143 143 143 143 143 143 143 143 143 143 143 143 143 143 144 144 144 144 144 144 144 144 145 145 145 145 145 145 145 145 145 145 145 146 146 146 146 146 146 147 147 147 148 148 148 149 149 150 150 151 151 152 152 152 153 153 153 153 153 153 153 153 153 153 153 152 152 152 152 151 151 151 151 150 150 150 150 150 150 150 149 149 149 148 148 148 148 148 149 151 153 156 159 164 169 174 180 185 190 195 200 203 207 209 211 212 212 212 212 211 209 206 202 198 192 187 181 176 171 165 161 157 153 151 149 148 147 146 145 145 144 144 143 143 143 143 143 143 143 143 143 143 143 143 144 144 144 145 145 145 145 146 146 146 147 147 148 148 148 149 149 150 150 150 151 151 152 152 153 153 154 154 155 155 156 156 156 157 157 158 158 159 159 159 160 160 160 160 161 161 161 161 161 161 161 161 161 161 161 161 160 160 159 159 158 158 157 156 156 155 154 153 153 152 151 150 149 149 148 147 147 146 146 145 145 144 144 143 143 143 143 143 143 142 142 142 142 143 143 143 143 143 143 143 143 143 144 144 144 144 144 144 144 145 145 145 145 145 145 145 145 145 145 146 146 146 146 146 146 146 146 146 146 146 146 146 146 146 146 146 146 146 146 146 146 146 146 146 146 146 146 146 146 146 146 146 146 146 146 146 146 146 146 146 146 146 146 146 146 146 146 146 147 147 147 147 147 147 147 147 147 147 147 147 147 147 147 147 147 148 148 148 148 148 149 149 149 150 150 150 151 151 152 152 152 153 153 153 153 154 154 154 154 154 153 153 153 153 152 152 151 151 151 150 150 150 149 149 149 148 148 148 148 148 148 147 147 147 146 146 146 146 147 148 150 152 156 160 165 170 176 181 186 192 196 201 204 207 209 210 211 211 211 210 209 207 203 199 194 189 183 177 172 166 161 156 153 150 148 146 145 144 143 143 142 141 141 141 140 140 140 140 140 140 141 141 141 141 141 141 141 142 142 142 143 143 143 143 144 144 144 144 145 145 145 146 146 147 147 147 148 148 149 149 149 150 150 151 151 152 152 153 153 154 154 154 155 155 156 156 156 156 157 157 157 157 157 157 157 157 157 157 157 156 156 155 155 155 154 153 153 152 151 150 150 149 148 147 146 145 144 144 143 142 141 141 140 140 139 139 138 138 138 137 137 137 137 137 137 137 137 137 137 137 137 137 137 137 137 137 137 137 137 137 137 138 138 138 138 138 138 138 138 138 138 138 138 138 139 139 139 139 139 139 139 139 139 139 139 139 139 139 139 139 139 139 139 139 139 139 139 139 139 139 140 140 140 140 140 140 140 140 140 140 140 140 140 141 141 141 141 141 141 141 141 141 141 141 141 141 141 141 141 141 141 141 141 141 141 141 141 142 142 142 142 142 142 142 142 142 142 142 142 143 143 143 143 144 144 145 145 145 146 146 147 147 147 147 148 148 148 148 148 148 148 148 147 147 147 146 146 146 145 145 145 144 144 144 144 143 143 143 143 143 142 142 142 142 141 141 141 141 142 143 144 146 149 153 158 164 169 175 180 186 191 196 200 203 205 207 208 208 208 208 207 205 202 198 194 188 183 177 171 166 160 156 152 149 146 145 144 143 142 141 140 140 140 139 139 139 139 139 139 139 139 139 139 139 139 140 140 140 140 141 141 141 142 142 142 143 143 143 144 144 144 145 145 145 146 146 146 147 147 147 148 148 149 149 149 150 150 151 151 151 152 152 153 153 153 153 154 154 154 154 155 155 155 155 155 155 155 154 154 154 153 153 152 152 151 151 150 149 148 148 147 146 145 144 144 143 142 141 140 140 139 138 138 137 137 136 136 135 135 135 134 134 134 134 134 134 134 134 134 134 134 134 134 134 134 134 134 134 135 135 135 135 135 135 135 135 135 135 135 136 136 136 136 136 136 136 136 136 136 136 137 137 137 137 137 137 137 137 137 137 137 137 137 137 138 138 138 138 138 138 138 138 138 138 138 138 138 138 138 138 138 138 138 138 138 138 138 138 138 138 138 138 138 139 139 139 139 139 139 139 139 139 139 140 140 140 140 140 140 140 140 140 140 141 141 141 141 141 142 142 143 143 143 144 144 145 145 145 145 146 146 146 146 146 146 146 146 146 146 146 145 145 145 144 144 143 143 143 142 142 142 142 141 141 141 141 141 141 140 140 140 139 139 140 140 142 143 146 150 154 159 165 170 176 182 187 192 196 200 203 205 206 207 207 207 206 205 202 199 195 190 184 178 172 167 161 156 151 148 145 143 142 140 139 139 138 137 137 136 136 136 136 136 136 136 136 136 136 136 136 137 137 137 138 138 138 139 139 140 140 140 141 141 142 142 142 143 143 143 144 144 145 145 145 146 146 147 147 147 148 148 149 149 150 150 150 151 151 152 152 152 153 153 153 153 154 154 154 154 154 154 154 154 154 154 154 153 153 152 152 151 151 150 149 148 147 146 146 145 144 143 142 141 140 139 139 138 137 137 136 136 135 135 135 134 134 134 134 134 134 134 134 134 134 134 134 134 134 134 134 135 135 135 135 135 135 136 136 136 136 136 137 137 137 137 137 138 138 138 138 138 139 139 139 139 139 139 140 140 140 140 140 140 140 141 141 141 141 141 141 141 141 141 141 142 142 142 142 142 142 142 142 142 142 142 142 142 142 142 142 142 142 142 142 142 142 142 142 142 142 142 142 142 142 142 143 143 143 143 143 143 143 143 143 143 143 143 144 144 144 144 144 144 145 145 145 146 146 146 147 147 147 148 148 148 149 149 149 149 149 149 149 149 149 149 148 148 148 147 147 147 147 147 146 146 146 146 146 146 146 146 146 146 146 145 145 145 145 145 146 147 149 151 154 158 163 169 174 180 185 190 195 200 204 207 209 210 211 211 211 211 209 207 204 200 195 189 184 178 172 166 161 156 152 149 147 145 144 143 143 142 141 141 140 140 140 140 140 139 139 139 139 140 140 140 140 140 140 140 141 141 141 141 142 142 142 143 143 143 144 144 144 145 145 145 146 146 147 147 148 148 148 149 149 150 150 151 151 152 152 152 153 153 154 154 154 155 155 155 155 156 156 156 156 156 156 156 156 155 155 155 155 154 154 153 152 152 151 150 149 148 148 147 146 145 144 143 142 141 140 139 139 138 137 137 136 136 135 135 134 134 134 134 134 134 133 133 133 133 133 133 133 133 133 134 134 134 134 134 134 134 134 134 134 135 135 135 135 135 135 135 135 135 136 136 136 136 136 136 136 136 136 136 137 137 137 137 137 137 137 137 137 137 137 137 137 138 138 138 138 138 138 138 138 138 138 138 138 138 138 139 139 139 139 139 139 139 139 139 139 139 139 139 139 139 139 139 139 139 139 139 139 139 139 139 139 139 139 139 139 139 139 140 140 140 140 140 140 140 140 140 140 141 141 141 142 142 142 143 143 144 144 144 145 145 145 145 146 146 146 146 146 146 146 146 145 145 145 144 144 144 144 143 143 143 142 142 142 142 142 142 142 141 141 141 141 140 140 140 140 141 142 143 145 148 152 157 162 168 174 179 185 190 195 200 203 205 207 208 209 209 209 208 206 203 199 195 189 184 178 172 166 160 155 151 148 145 143 142 141 140 139 138 138 137 137 137 136 136 136 136 136 137 137 137 137 137 138 138 138 139 139 139 140 140 140 141 141 142 142 142 143 143 144 144 144 145 145 146 146 147 147 147 148 148 149 149 150 150 151 151 152 152 152 153 153 154 154 154 155 155 155 155 156 156 156 156 156 156 155 155 155 155 154 154 153 153 152 151 151 150 149 148 147 146 146 145 144 143 142 141 141 140 139 139 138 137 137 137 136 136 136 136 135 135 135 135 135 135 135 135 135 135 135 136 136 136 136 136 136 136 137 137 137 137 137 137 138 138 138 138 138 138 139 139 139 139 139 139 139 140 140 140 140 140 140 140 141 141 141 141 141 141 141 141 142 142 142 142 142 142 142 142 142 142 142 142 143 143 143 143 143 143 143 143 143 144 144 144 144 144 144 144 144 145 145 145 145 145 145 145 145 145 145 145 145 145 145 146 146 146 146 146 146 146 146 146 146 146 146 146 146 147 147 147 147 147 148 148 148 149 149 150 150 151 151 151 152 152 152 153 153 153 153 153 153 153 153 153 153 153 153 152 152 152 151 151 151 151 150 150 150 150 150 150 150 149 149 149 149 148 148 148 148 148 149 150 152 155 159 164 168 173 177 182 186 191 195 198 201 203 204 205 205 205 204 203 201 198 194 190 185 180 176 171 166 162 157 154 151 149 148 147 146 146 145 145 145 144 144 144 144 144 144 144 144 144 144 144 144 145 145 145 145 146 146 146 147 147 147 148 148 148 149 149 149 150 150 150 151 151 152 152 152 153 153 153 153 154 154 155 155 156 156 157 157 158 158 159 159 160 160 160 161 161 162 162 163 163 163 163 163 163 163 163 163 163 162 162 161 161 160 159 158 157 156 155 154 153 152 151 150 149 147 146 145 144 143 142 141 140 140 139 138 138 137 137 136 136 136 135 135 135 135 135 135 135 135 135 135 135 135 135 136 136 136 136 136 136 136 137 137 137 137 137 137 138 138 138 138 138 138 138 138 138 138 139 139 139 139 139 139 139 139 139 139 139 139 139 139 139 139 139 139 139 139 139 139 139 139 139 139 139 139 139 139 139 139 139 139 139 139 139 139 139 139 139 139 139 139 139 139 139 139 139 139 139 139 139 139 139 139 139 139 139 139 139 139 139 139 139 139 139 139 140 140 140 141 141 141 141 142 142 142 142 142 142 142 142 142 142 141 141 141 141 140 140 139 139 139 139 138 138 138 137 137 137 137 137 137 136 136 135 135 135 134 134 135 135 137 140 143 148 153 158 164 169 174 179 184 189 193 197 199 201 202 203 203 202 200 198 194 189 184 178 173 167 161 156 150 145 140 137 134 132 131 130 129 128 127 127 126 126 125 125 125 125 125 125 125 125 125 125 126 126 126 126 126 126 127 127 127 128 128 128 129 129 129 130 130 130 131 131 132 132 132 133 133 134 134 135 135 136 136 137 137 138 139 139 140 140 141 142 142 143 144 144 145 145 145 146 146 147 147 147 147 147 146 146 146 145 144 143 143 141 140 139 138 136 135 134 132 131 129 128 126 125 124 123 121 120 119 118 118 117 116 116 115 115 115 114 114 114 114 114 114 114 114 114 114 114 114 114 114 114 114 114 114 115 115 115 115 115 115 115 115 115 116 116 116 116 116 116 116 116 116 116 116 116 116 116 116 116 116 116 116 116 116 116 116 116 116 116 116 116 116 116 116 116 116 116 116 116 116 116 116 116 116 116 116 116 116 116 116 116 116 116 116 116 116 116 116 116 117 117 117 117 116 116 117 117 117 117 117 117 117 117 118 118 118 118 119 119 119 120 120 121 121 121 122 122 122 122 122 123 123 123 122 122 122 122 122 121 121 121 120 120 120 120 119 119 119 119 119 119 118 118 118 117 117 117 116 116 117 117 119 121 124 128 133 139 145 151 157 164 169 175 180 184 187 189 191 192 193 193 192 190 187 184 179 173 167 161 155 148 142 137 132 128 125 123 122 120 119 118 118 117 116 116 116 116 115 115 115 116 116 116 116 116 117 117 117 118 118 118 119 119 120 120 121 121 122 122 123 123 124 124 125 125 126 126 127 127 128 129 129 130 130 131 132 132 133 134 134 135 136 136 137 138 138 139 139 140 141 141 142 142 143 143 143 144 144 144 144 144 144 144 143 143 143 142 142 141 140 139 139 138 137 136 135 134 133 132 131 131 130 129 128 128 127 127 126 126 126 126 126 126 125 126 126 126 126 126 126 126 127 127 127 127 128 128 128 128 129 129 129 130 130 130 130 130 131 131 131 131 132 132 132 132 133 133 133 133 133 134 134 134 134 135 135 135 135 135 136 136 136 136 136 137 137 137 137 137 137 138 138 138 138 138 138 138 138 139 139 139 139 139 139 140 140 140 140 140 140 140 141 141 141 141 141 142 142 142 142 142 143 143 143 144 144 144 144 145 145 145 145 146 146 146 146 147 147 147 147 148 148 148 148 148 149 149 149 150 150 151 151 152 152 153 154 154 155 155 156 156 157 157 158 158 158 158 158 158 158 158 157 157 157 157 157 157 156 156 156 156 156 156 156 156 156 156 156 156 156 156 156 156 157 158 160 163 167 171 175 179 184 188 192 196 200 205 209 213 216 219 221 222 223 223 222 220 217 213 210 206 202 199 194 190 186 182 178 175 172 170 168 167 167 167 167 167 167 167 167 167 167 167 168 169 169 171 172 173 175 176 177 178 179 180 180 181 181 182 183 184 185 186 188 189 190 190 191 191 192 192 192 193 194 195 197 198 199 200 201 202 202 203 204 204 205 205 206 207 208 209 210 211 212 212 213 213 213 213 214 214 214 214 214 214 214 214 213 212 211 210 209 207 205 203 201 199 197 195 193 191 189 187 184 182 180 178 176 174 173 171 169 167 165 164 162 161 160 158 157 156 155 154 153 152 151 150 149 148 148 147 147 147 147 147 146 146 146 145 145 145 145 144 144 144 144 144 144 144 144 144 144 143 143 143 143 143 143 143 143 142 142 142 141 141 141 141 141 141 141 141 141 141 141 141 141 141 141 141 141 142 142 142 142 142 142 142 142 142 142 142 142 142 142 142 142 142 142 142 142 142 142 142 141 141 141 141 141 141 141 141 141 140 140 140 140 140 140 140 140 139 139 139 139 139 140 140 140 140 140 140 140 141 141 141 142 142 142 143 143 143 143 143 144 144 144 143 143 143 143 143 142 142 141 141 141 140 140 139 139 139 138 138 138 137 137 137 137 136 136 136 136 135 135 135 134 134 135 135 137 139 142 146 150 156 162 168 175 181 187 193 198 202 205 207 209 210 210 210 209 208 205 202 197 191 185 179 172 166 160 154 149 144 141 139 136 135 133 132 131 130 129 128 128 127 127 127 127 126 126 126 126 127 127 127 128 128 129 129 129 130 130 130 130 131 131 131 132 132 133 133 133 134 134 134 135 136 136 137 138 138 139 139 140 141 141 142 142 143 144 144 145 145 146 147 147 147 148 148 149 149 149 150 150 150 150 150 150 150 150 149 149 149 148 147 147 146 145 145 144 143 142 141 140 139 138 138 137 136 135 134 134 133 132 132 131 131 131 130 130 130 130 129 129 129 129 129 129 130 130 130 130 130 130 131 131 131 131 131 132 132 132 132 132 132 132 133 133 133 133 133 133 133 133 134 134 134 134 134 134 134 134 134 134 134 135 135 135 135 135 135 135 135 135 135 135 135 135 135 135 135 135 135 135 134 134 134 134 134 134 134 134 134 134 134 134 133 133 133 133 133 133 133 133 133 133 133 133 133 133 133 133 133 133 133 133 133 132 132 132 132 132 133 133 133 133 133 134 134 134 135 135 135 136 136 136 137 137 137 137 137 137 137 137 137 136 136 136 136 135 135 135 134 134 133 133 133 132 132 132 132 131 131 131 131 130 130 129 129 129 129 129 130 132 134 137 141 146 152 158 165 171 177 183 188 192 195 197 198 199 199 199 199 197 195 191 187 182 176 169 162 156 149 143 137 133 130 127 125 124 123 122 121 121 120 119 119 119 119 118 118 118 118 118 118 118 119 119 119 119 119 120 120 120 120 121 121 121 121 122 122 122 123 123 124 124 124 125 125 126 126 127 127 128 128 129 129 130 130 131 131 132 132 133 134 134 135 136 136 137 137 138 138 138 139 139 139 140 140 140 140 140 139 139 139 138 138 137 136 135 135 134 133 132 131 130 129 128 127 126 125 124 123 122 121 121 120 120 119 119 118 118 118 118 118 117 117 117 118 118 118 118 118 119 119 119 119 120 120 120 121 121 121 122 122 122 123 123 123 123 124 124 124 125 125 125 126 126 126 127 127 127 127 128 128 128 129 129 129 129 130 130 130 131 131 131 132 132 132 133 133 133 134 134 134 135 135 135 136 136 136 136 137 137 137 137 138 138 138 138 139 139 139 139 139 140 140 140 140 141 141 141 142 142 143 143 144 144 145 145 146 147 147 148 149 149 150 151 151 152 152 152 153 153 153 153 153 154 154 153 153 153 153 153 153 153 153 153 153 153 153 153 153 154 154 154 154 153 153 153 154 154 155 157 159 162 166 171 176 181 186 191 196 201 206 211 215 218 220 222 223 223 223 222 221 218 214 210 205 200 195 191 185 181 176 171 167 165 162 161 160 159 159 158 158 157 157 157 157 157 157 157 157 157 158 158 158 159 159 159 160 160 160 161 161 162 162 163 163 163 164 164 165 165 166 166 166 167 167 168 168 169 169 170 170 171 171 172 172 173 173 174 175 175 176 176 177 177 178 179 179 179 180 180 180 181 181 181 181 181 181 181 181 180 180 179 179 178 177 176 175 174 173 172 170 169 168 166 165 164 163 162 160 159 159 158 157 156 155 155 154 154 154 153 153 153 152 152 152 152 152 152 152 152 151 151 151 151 151 151 151 151 151 151 151 151 152 152 152 152 152 152 152 152 152 152 152 152 152 152 152 152 152 152 152 152 152 152 152 152 152 152 152 152 152 152 152 152 152 152 152 152 152 152 152 152 152 152 152 152 152 152 152 152 152 152 151 151 151 151 152 152 152 151 152 152 152 152 152 152 153 153 153 153 154 154 154 154 154 155 155 155 155 155 155 155 155 155 154 154 154 153 153 153 152 152 152 151 151 151 151 150 150 150 150 150 149 149 148 148 148 147 147 148 149 151 153 157 161 166 171 176 182 187 192 197 201 205 209 211 213 213 214 214 213 211 208 204 200 195 189 184 178 173 167 161 156 152 148 146 144 143 141 141 140 139 138 138 137 137 136 136 136 136 136 136 136 136 136 136 137 137 137 137 138 138 138 138 139 139 139 140 140 140 140 141 141 141 142 142 142 143 143 143 144 144 145 145 146 146 146 147 148 148 149 149 150 150 151 151 152 152 153 153 154 154 155 155 155 155 155 155 155 155 155 154 154 153 152 152 151 150 149 148 147 145 144 143 142 140 139 138 137 136 135 134 133 132 131 131 130 130 129 129 128 128 128 128 128 128 128 128 128 128 128 128 129 129 129 129 129 129 130 130 130 130 130 130 130 131 131 131 131 131 131 132 132 132 132 132 132 132 132 133 133 133 133 133 134 134 134 134 134 134 134 135 135 135 135 135 135 135 135 135 135 135 136 136 136 136 136 136 136 136 136 136 136 137 137 137 137 137 137 138 138 138 138 138 139 139 139 140 140 141 141 142 142 143 143 143 144 144 145 145 145 146 146 146 146 146 146 146 146 146 146 146 145 145 145 145 145 144 144 144 144 144 144 144 144 144 143 143 143 142 142 142 142 143 144 146 148 152 156 161 167 172 177 182 187 193 197 202 205 208 210 211 212 212 212 210 208 205 200 196 190 185 180 174 169 164 159 154 151 148 146 145 144 143 142 141 141 140 140 140 140 139 139 139 139 140 140 140 140 140 141 141 141 141 142 142 142 143 143 143 144 144 145 145 145 146 146 147 147 148 148 148 149 149 150 150 151 151 152 153 153 154 154 155 155 156 156 157 157 158 158 159 159 160 160 160 161 161 161 161 161 161 161 160 160 160 159 159 158 157 156 156 155 154 153 152 150 149 148 147 146 145 144 143 142 141 141 140 139 139 138 138 137 137 137 136 136 136 136 136 136 136 136 136 136 136 136 137 137 137 137 137 137 137 138 138 138 138 138 138 138 138 139 139 139 139 139 139 139 139 139 139 139 139 139 139 139 139 139 139 139 139 140 140 140 140 140 140 140 140 140 140 140 140 140 140 140 140 140 140 140 140 140 140 140 140 140 140 141 141 141 141 141 141 141 141 141 141 141 142 142 142 143 143 143 144 144 145 145 145 146 146 146 146 147 147 147 147 147 147 147 147 146 146 146 146 145 145 145 145 144 144 144 144 144 144 144 144 143 143 143 142 142 142 142 142 142 144 145 148 152 157 162 167 173 178 184 189 195 200 204 208 210 212 213 213 213 212 210 208 204 199 194 188 183 177 171 165 159 154 149 146 143 141 140 139 138 138 137 136 136 135 135 135 134 134 134 134 134 134 135 135 135 135 135 136 136 136 136 137 137 137 138 138 138 139 139 140 140 140 141 141 142 142 142 143 143 144 144 144 145 145 146 146 147 147 148 148 149 149 150 150 150 151 151 152 152 153 153 153 154 154 154 154 154 154 154 154 153 153 152 152 151 150 150 149 148 146 145 144 143 142 140 139 138 137 136 135 134 133 132 131 130 130 129 129 128 128 128 127 127 127 127 127 127 127 127 127 127 127 127 127 128 128 128 128 128 129 129 129 129 129 130 130 130 130 130 131 131 131 131 131 131 132 132 132 132 132 132 133 133 133 133 133 133 133 133 133 133 133 133 134 134 134 134 134 134 134 134 134 134 134 134 134 134 135 135 135 135 135 135 135 135 135 135 135 135 135 135 135 135 136 136 136 136 136 137 137 137 138 138 139 139 140 140 140 141 141 141 141 142 142 142 142 142 142 142 141 141 141 141 140 140 140 140 140 139 139 139 139 139 139 139 138 138 138 138 137 137 137 137 138 140 142 145 149 155 160 166 171 177 183 188 194 198 203 206 208 210 211 212 211 210 208 206 202 197 191 185 179 174 168 162 156 151 147 143 141 139 138 136 135 135 134 133 133 132 132 132 132 132 132 132 132 132 132 133 133 133 133 134 134 134 135 135 135 136 136 137 137 137 138 138 139 139 139 140 140 141 141 141 142 142 143 143 144 144 145 145 146 146 147 147 148 148 149 149 150 150 151 151 152 152 152 153 153 153 153 153 153 154 153 153 153 153 152 152 151 151 150 149 148 147 146 145 145 144 143 142 141 140 139 138 137 137 136 136 135 135 134 134 134 133 133 133 133 133 133 133 133 133 133 133 133 133 133 133 134 134 134 134 134 134 134 134 135 135 135 135 135 135 136 136 136 136 136 136 136 136 137 137 137 137 137 137 137 137 137 138 138 138 138 138 138 138 138 138 138 138 139 139 139 139 139 139 139 139 139 139 139 140 140 140 140 140 140 140 140 140 140 140 140 141 141 141 141 141 141 142 142 142 143 143 144 144 145 145 146 146 146 147 147 147 147 148 148 148 148 148 148 147 147 147 147 146 146 146 145 145 145 144 144 144 144 144 143 143 143 143 143 142 142 142 142 142 142 143 144 147 150 154 159 165 170 175 181 186 191 196 200 204 206 208 209 210 210 210 209 207 203 199 194 189 184 178 172 167 162 156 152 149 146 144 142 141 140 140 139 138 138 137 137 137 137 137 136 136 137 137 137 137 137 137 138 138 138 138 139 139 139 140 140 140 141 141 141 142 142 143 143 144 144 145 145 145 146 146 147 147 148 148 148 149 149 150 150 151 151 151 152 152 152 153 153 153 153 154 154 154 154 154 154 154 154 154 154 154 153 153 153 152 152 151 151 150 149 148 147 147 146 145 144 143 142 141 140 140 139 138 137 137 136 136 135 135 135 135 134 134 134 134 134 134 134 134 134 134 134 135 135 135 135 135 135 135 136 136 136 136 136 136 136 137 137 137 137 137 137 137 137 138 138 138 138 138 138 138 138 138 138 139 139 139 139 139 139 139 139 139 139 139 139 139 139 139 140 140 140 140 140 140 140 140 140 140 140 140 140 140 140 140 140 140 140 140 140 141 141 141 141 141 141 141 141 142 142 142 142 143 143 144 144 145 145 145 146 146 147 147 147 147 148 148 148 148 148 148 147 147 147 147 146 146 146 145 145 145 144 144 144 144 144 143 143 143 143 143 142 142 142 142 142 143 144 146 148 152 156 161 167 172 178 183 188 193 197 201 204 206 207 208 208 208 207 206 203 200 195 190 185 179 174 168 163 158 153 150 147 145 143 142 142 141 140 140 139 139 138 138 138 138 138 138 138 138 138 138 138 138 138 139 139 139 139 140 140 140 141 141 141 142 142 142 143 143 143 144 144 145 145 145 146 146 146 147 147 148 148 149 149 149 150 150 151 151 151 152 152 152 153 153 153 153 154 154 154 154 154 154 154 154 154 154 153 153 152 152 151 151 150 150 149 148 147 147 146 145 144 144 143 142 141 141 140 139 139 138 138 137 137 137 136 136 136 136 136 136 136 136 136 136 136 136 136 136 136 136 136 137 137 137 137 137 137 137 138 138 138 138 138 138 138 138 138 138 138 138 139 139 139 139 139 139 139 139 139 139 139 139 139 139 139 139 139 139 139 139 139 139 139 139 139 139 139 139 139 139 139 139 139 139 139 140 140 140 140 140 140 140 140 140 141 141 141 141 142 142 143 143 143 144 144 145 145 146 146 146 147 147 147 147 147 147 148 147 147 147 147 147 146 146 146 145 145 145 144 144 144 144 144 143 143 143 143 143 143 142 142 142 142 142 142 143 145 147 150 154 159 164 169 174 179 184 189 193 197 200 202 204 204 205 205 204 203 200 197 193 189 184 178 173 168 163 158 153 149 146 144 142 141 141 140 139 139 139 138 138 138 138 137 137 138 138 138 138 138 138 139 139 139 140 140 140 141 141 141 142 142 142 143 143 143 144 144 144 145 145 145 146 146 146 146 147 147 147 148 148 148 149 149 149 150 150 151 151 151 152 152 152 152 153 153 153 153 153 153 153 154 154 154 154 153 153 153 152 152 151 151 150 149 149 148 147 146 146 145 144 143 142 141 141 140 139 138 138 137 137 136 136 135 135 135 134 134 134 134 134 133 133 134 134 134 134 134 134 134 134 135 135 135 135 135 135 135 135 136 136 136 136 136 136 136 136 136 136 136 136 136 136 136 136 136 136 136 136 136 136 136 136 136 136 136 137 137 137 137 137 138 138 138 138 139 139 139 139 139 139 139 139 139 139 139 139 139 139 139 139 139 139 139 139 140 140 140 141 141 142 142 143 143 144 144 144 145 145 145 146 146 146 147 147 147 146 146 146 146 146 145 145 145 145 144 144 144 144 144 144 144 144 144 143 143 143 143 143 142 142 143 144 145 147 150 153 158 163 168 172 178 183 187 192 196 200 202 204 205 206 206 206 205 203 201 197 193 188 183 178 173 168 163 159 154 151 148 147 145 144 144 143 142 142 141 141 140 140 140 140 140 140 140 140 140 140 140 141 141 142 142 143 143 143 144 144 145 145 146 146 147 147 148 148 148 149 149 150 150 150 150 151 151 151 152 152 153 153 154 155 155 156 157 157 158 158 159 159 159 160 160 160 160 160 160 160 160 160 160 160 160 160 160 159 159 159 158 157 157 156 155 155 154 154 153 152 151 150 149 148 147 146 145 144 144 143 143 143 143 143 143 143 143 142 142 142 142 142 142 143 143 144 144 145 145 145 145 145 146 146 146 147 147 147 148 148 148 148 148 148 148 148 149 149 149 149 150 150 150 150 150 150 150 151 151 151 152 152 153 153 153 154 154 154 154 154 154 154 154 154 155 155 155 155 156 156 156 156 156 156 156 157 157 157 158 158 158 159 159 159 160 160 161 161 161 162 162 162 162 162 162 163 163 163 163 162 162 162 162 162 161 161 161 160 160 159 159 159 158 158 158 158 157 157 157 157 156 156 155 155 154 154 153 153 153 154 155 157 159 163 167 172 176 181 186 190 194 198 200 202 203 204 205 205 205 205 204 202 199 195 191 185 180 175 169 164 160 156 153 151 149 148 147 146 146 145 144 143 143 143 142 142 142 142 142 142 142 142 142 142 142 142 142 142 142 142 142 143 143 143 143 143 143 143 143 144 144 144 144 145 145 145 145 146 146 146 146 147 147 148 148 148 148 148 149 149 149 149 149 149 149 150 150 150 150 149 149 149 149 149 148 148 148 147 147 147 146 146 145 144 143 142 141 140 139 139 138 137 136 135 134 133 133 132 131 130 130 129 128 128 127 127 127 127 127 126 126 126 126 126 126 126 125 126 126 126 126 126 126 127 127 127 127 127 127 127 127 128 128 128 128 129 129 129 129 129 129 129 129 129 129 129 129 129 129 129 129 129 129 130 130 130 130 130 130 130 131 131 131 131 131 131 131 131 131 131 131 131 131 131 131 132 132 132 132 133 133 133 134 134 135 135 135 136 136 136 136 137 137 137 137 137 137 137 137 137 137 137 136 136 136 135 135 135 134 134 134 134 134 134 133 133 133 133 132 132 132 132 132 132 132 132 133 134 136 138 142 146 151 156 162 168 174 179 184 188 191 193 195 196 197 197 197 196 195 193 189 186 181 176 170 164 158 153 148 144 141 139 137 136 136 135 135 134 134 133 133 133 133 133 133 133 133 133 134 134 134 134 134 135 135 135 136 136 136 137 137 137 138 138 139 139 139 140 140 141 141 142 142 142 143 143 144 144 145 145 145 146 146 147 147 148 148 148 149 149 149 150 150 150 151 151 151 151 152 152 152 151 151 151 151 151 151 150 150 149 149 148 148 147 146 145 145 144 143 142 142 141 140 139 139 138 137 137 136 136 136 135 135 135 135 134 134 134 134 134 134 134 134 134 134 134 134 134 134 134 134 134 134 134 134 134 134 135 135 135 135 135 135 135 135 135 135 135 135 135 135 135 135 135 135 136 136 136 136 136 136 136 136 136 136 136 136 136 135 136 135 135 135 135 135 135 135 135 135 135 135 135 135 135 135 135 136 136 136 136 137 137 137 138 138 139 139 139 140 140 140 140 140 141 141 141 141 140 140 140 140 139 139 138 138 138 137 137 137 136 136 136 136 135 135 135 135 135 135 135 134 134 134 134 134 134 134 134 135 137 139 142 145 149 155 160 166 172 177 182 187 191 194 196 197 198 198 198 198 196 195 192 189 185 180 174 168 163 157 152 147 144 141 139 138 137 137 136 136 136 136 136 136 136 136 136 136 136 137 137 137 137 138 138 138 139 139 140 140 141 141 141 142 142 143 143 144 144 144 145 145 146 146 147 147 147 148 148 149 149 150 150 151 151 152 152 152 153 153 154 154 154 155 155 155 156 156 156 156 156 156 156 156 156 156 156 156 155 155 155 154 154 153 153 152 152 151 150 150 149 148 147 147 146 145 144 144 143 142 142 141 141 140 140 140 139 139 139 139 139 139 139 139 139 139 139 140 140 140 140 140 140 141 141 141 141 141 141 142 142 142 142 142 142 142 142 142 142 142 142 143 143 143 143 143 143 143 143 143 143 143 143 142 142 142 142 142 142 142 142 142 142 142 142 142 142 142 142 142 142 142 142 142 142 142 142 142 142 143 143 143 143 143 143 143 143 143 144 144 144 145 145 146 146 146 147 147 147 148 148 148 148 148 148 148 148 148 148 148 147 147 147 146 146 146 145 145 145 144 144 144 144 144 144 144 144 143 143 143 142 142 142 142 143 144 145 147 150 154 159 164 169 174 179 183 188 192 196 198 200 202 203 203 203 203 201 199 196 192 188 183 178 173 168 163 158 154 150 147 145 144 143 142 141 140 140 139 139 138 138 138 138 138 138 138 138 138 138 138 138 138 139 139 139 140 140 140 140 141 141 141 142 142 142 143 143 143 144 144 145 145 145 146 146 146 147 147 148 148 149 149 150 150 150 151 151 152 152 153 153 153 154 154 154 155 155 155 155 155 155 155 155 155 155 155 155 154 154 153 153 152 151 150 150 149 148 147 146 145 144 143 142 141 141 140 139 138 138 137 137 136 136 136 135 135 135 135 135 135 135 135 135 135 135 135 135 135 135 135 136 136 136 136 136 136 136 136 136 136 136 136 136 137 137 137 137 137 137 137 137 137 137 137 137 137 137 137 138 138 138 138 138 138 138 138 138 138 138 138 138 139 139 139 139 139 139 139 139 139 139 139 139 139 139 139 139 139 139 139 139 139 139 139 139 139 139 139 139 139 140 140 140 140 141 141 141 142 142 143 143 144 144 144 145 145 145 146 146 146 147 147 147 147 146 146 146 146 146 145 145 144 144 144 144 143 143 143 142 142 142 142 142 142 141 141 141 141 141 140 140 140 141 142 144 146 149 153 158 163 168 172 177 182 186 190 193 196 198 199 199 200 199 199 197 195 192 188 183 178 173 169 163 159 154 150 147 144 143 142 141 140 139 139 138 138 138 137 137 137 137 137 137 137 137 137 137 138 138 138 138 139 139 139 139 140 140 140 141 141 141 142 142 142 143 143 144 144 144 145 145 146 146 147 147 147 148 148 149 149 150 150 151 151 152 152 152 153 153 153 154 154 154 155 155 155 155 155 155 155 155 154 154 154 153 153 152 152 151 150 150 149 148 147 146 145 144 143 143 142 141 140 140 139 138 138 137 137 136 136 135 135 135 135 134 134 134 134 134 134 134 134 134 134 135 135 135 135 135 135 136 136 136 136 136 136 137 137 137 137 137 137 137 138 138 138 138 138 138 138 138 138 138 139 139 139 139 139 139 139 139 140 140 140 140 140 140 140 141 141 141 141 141 141 141 141 142 142 142 142 142 142 142 142 142 142 142 143 143 143 143 143 143 143 143 143 143 143 144 144 144 144 144 144 144 144 144 145 145 145 145 145 145 145 145 145 145 145 146 146 146 146 146 146 147 147 147 147 148 148 149 149 149 150 150 151 151 151 152 152 152 152 153 153 153 153 153 153 153 153 152 152 152 152 151 151 151 151 150 150 150 150 150 150 150 150 149 149 149 149 149 149 149 149 149 150 151 153 155 159 163 167 172 177 181 186 190 194 198 201 203 204 205 205 205 204 203 201 199 196 192 187 182 177 173 168 163 159 155 153 151 149 148 148 147 147 147 147 146 146 146 146 146 146 146 146 146 146 146 146 147 147 147 147 148 148 148 148 149 149 150 150 150 150 151 151 152 152 152 153 153 153 154 154 155 155 155 156 156 157 157 157 158 158 159 159 159 159 160 160 160 160 161 161 161 161 161 161 161 161 161 161 160 160 159 159 159 158 157 157 156 155 155 154 153 152 151 150 149 148 147 146 145 144 143 142 141 140 140 139 138 138 137 137 136 136 136 135 135 135 135 135 135 135 134 135 135 135 135 135 135 135 134 134 134 134 134 134 134 134 134 134 134 134 134 134 134 134 134 133 133 133 133 133 133 133 133 133 133 133 133 133 133 133 133 133 133 133 133 133 133 133 133 132 132 132 132 132 132 132 132 132 132 132 132 132 132 132 132 132 132 132 132 132 132 133 133 133 133 133 133 133 133 133 133 133 133 133 133 133 133 133 133 133 133 133 133 133 133 133 133 133 133 133 133 133 133 133 133 133 133 133 134 134 134 135 135 135 136 136 136 137 137 137 137 137 137 137 137 137 137 137 137 137 136 136 136 136 136 135 135 135 135 135 135 135 135 135 135 135 135 135 136 136 137 138 140 142 145 150 155 161 166 172 178 184 191 196 202 208 213 217 221 224 227 229 230 231 231 230 229 227 224 222 220 218 215 213 212 211 210 210 211 213 214 216 218 220 222 224 226 228 230 232 235 236 238 240 242 243 245 246 247 248 249 250 250 251 251 251 252 252 252 253 253 253 253 253 253 254 254 254 254 254 254 254 254 254 254 254 254 254 254 254 254 254 254 254 254 253 254 254 254 254 253 253 253 253 253 253 253 253 252 252 252 252 252 251 252 251 252 252 251 251 251 252 252 252 252 252 252 253 253 253 254 254 254 254 255 255 255 255 255 255 255 254 254 254 254 253 253 253 252 251 251 250 250 249 248 248 247 246 246 245 245 244 244 243 243 242 242 241 241 241 240 240 240 240 240 240 239 239 239 239 239 239 239 239 239 239 239 239 239 239 238 239 239 239 239 239 239 239 239 239 239 239 239 239 239 239 239 239 239 239 239 239 239 239 239 239 239 239 239 239 239 239 239 238 238 238 238 238 238 238 238 237 237 237 237 237 237 237 236 236 236 236 236 236 235 235 235 235 235 234 234 234 234 234 233 233 233 233 233 233 233 233 233 233 233 232 232 232 232 232 232 232 232 231 231 230 230 229 229 228 227 226 225 224 223 222 221 220 218 217 216 214 213 211 209 207 205 203 200 198 196 194 193 192 192 194 195 198 200 203 205 208 211 214 217 219 221 221 221 220 218 216 213 210 205 199 193 186 178 171 163 155 147 139 131 124 118 113 108 105 102 99 96 94 92 90 88 86 85 84 83 81 80 79 79 78 77 76 75 75 74 73 72 72 71 70 69 69 68 67 67 66 66 65 65 64 64 63 63 63 63 63 62 62 62 62 62 63 63 63 63 63 64 64 64 64 64 65 65 65 65 65 65 65 65 65 65 64 64 64 63 63 63 62 61 61 60 60 59 58 57 57 56 55 55 54 53 53 52 51 51 50 50 49 49 49 48 48 48 48 48 48 48 48 48 48 48 49 49 49 49 50 50 51 51 51 51 52 52 53 53 53 54 54 54 55 55 55 56 56 56 57 57 57 57 57 58 58 58 58 58 58 58 58 59 58 59 59 59 59 59 59 59 59 59 59 59 59 59 59 59 59 59 59 58 59 59 58 59 59 59 59 59 59 59 59 59 59 59 60 60 60 60 60 60 60 60 60 61 61 61 61 61 61 61 62 62 62 62 62 62 62 62 63 63 63 63 63 63 63 63 63 63 64 64 64 64 64 64 64 64 64 65 65 65 65 66 66 66 67 67 67 68 68 68 68 69 69 69 69 70 70 70 70 70 71 71 71 71 71 71 71 71 71 72 72 72 72 72 72 73 73 73 73 73 73 73 73 74 74 75 77 79 82 86 91 97 103 111 118 126 133 139 145 150 153 156 158 160 161 161 161 160 158 155 151 146 141 134 127 120 114 108 103 99 96 94 92 91 91 90 90 89 89 89 89 89 89 90 90 91 91 92 93 93 94 95 96 96 97 98 99 100 100 101 102 103 104 105 106 107 107 108 109 110 111 112 113 114 115 116 117 118 119 120 121 122 123 124 125 126 126 127 128 128 129 130 130 131 131 132 132 132 133 133 133 133 133 133 133 133 133 133 133 132 132 132 131 131 130 130 129 129 128 127 127 126 126 125 125 124 124 123 123 123 122 122 122 122 122 122 122 122 122 123 123 123 123 124 124 124 124 125 125 125 126 126 126 127 127 127 127 128 128 128 128 129 129 129 130 130 130 130 130 131 131 131 131 131 132 132 132 132 132 132 132 132 132 132 132 133 133 133 133 133 133 133 133 133 133 133 133 133 133 133 133 134 134 134 134 135 135 135 135 136 136 136 137 137 137 138 138 138 139 139 139 140 140 140 140 140 141 141 141 141 141 141 141 141 141 141 141 141 141 141 141 142 142 142 141 141 141 141 141 141 142 141 142 142 142 142 142 142 142 143 143 143 144 144 145 145 146 146 147 147 147 148 148 148 148 149 149 149 149 149 149 149 149 149 148 148 148 148 148 148 148 148 148 148 148 148 148 148 148 148 148 148 148 148 148 148 149 150 152 155 158 163 167 172 176 181 186 190 194 198 201 203 205 206 206 206 205 204 203 200 197 192 188 183 178 173 168 164 159 155 152 150 148 147 147 146 146 145 145 145 144 144 144 144 144 144 144 144 145 145 145 145 146 146 146 146 147 147 147 147 148 148 148 149 149 149 149 150 150 150 151 151 151 151 151 152 152 152 152 153 153 153 153 153 154 154 154 154 155 155 155 155 156 156 156 156 156 156 157 157 157 157 157 157 157 156 156 156 156 155 155 155 154 153 153 152 152 151 150 149 148 148 147 146 145 144 144 143 142 142 141 141 140 140 140 140 139 139 139 139 139 139 139 140 140 140 140 141 141 141 141 142 142 142 142 143 143 143 144 144 144 144 144 145 145 145 145 145 145 145 145 145 145 145 145 145 145 145 145 145 145 144 144 144 144 144 144 143 143 143 143 143 143 143 142 142 142 142 142 142 141 141 141 141 141 141 141 141 140 140 140 140 140 140 140 140 139 139 139 139 139 139 138 138 138 138 138 137 137 137 137 136 136 136 136 135 135 135 135 134 134 134 134 134 133 133 133 133 133 133 133 133 133 133 133 133 133 133 134 134 134 134 135 135 135 135 135 135 136 136 136 136 136 135 135 135 135 134 134 134 134 133 133 133 132 132 132 132 131 131 131 131 131 131 130 130 130 130 129 130 130 131 133 135 138 142 147 152 157 163 168 174 178 183 186 189 191 193 193 194 194 193 192 190 187 183 178 173 168 162 156 151 146 142 138 135 133 132 131 130 129 129 128 128 127 127 127 127 127 127 127 127 127 128 128 128 129 129 129 130 130 130 131 131 132 132 132 133 133 134 134 134 135 135 135 136 136 137 137 137 138 138 139 139 140 140 141 141 142 142 143 144 144 145 145 146 146 147 147 148 148 149 149 150 150 151 151 151 151 151 151 152 151 151 151 151 150 150 149 149 148 148 147 146 145 145 144 143 142 142 141 140 139 139 138 138 137 137 136 136 136 136 136 135 135 135 135 135 136 136 136 136 136 136 136 137 137 137 137 137 137 137 138 138 138 138 138 139 139 139 139 139 139 139 140 140 140 140 140 140 140 141 141 141 141 141 141 141 141 141 142 142 142 142 142 142 142 142 142 142 142 142 142 142 142 142 143 143 143 143 143 143 143 143 143 143 143 143 143 143 143 143 143 144 144 144 144 144 144 144 144 144 144 144 144 144 144 145 145 145 145 145 146 146 146 147 147 147 148 148 148 149 149 149 149 149 149 149 149 149 149 149 149 148 148 148 148 147 147 147 147 147 146 146 146 146 146 146 146 146 145 145 145 145 145 145 145 145 146 148 150 153 156 161 165 171 175 180 185 189 193 197 199 201 202 203 203 203 202 201 199 196 192 188 183 178 173 168 163 159 155 151 148 146 145 144 143 143 143 142 142 142 141 141 141 141 141 141 141 142 142 142 142 142 143 143 143 144 144 144 145 145 146 146 146 147 147 148 148 148 149 149 150 150 151 151 152 152 153 154 154 155 155 156 156 157 157 158 159 159 160 160 161 161 162 162 163 163 163 164 164 164 164 164 164 164 164 164 164 163 163 162 161 161 160 159 158 157 156 155 154 152 151 150 149 148 147 146 145 144 143 142 141 141 140 139 139 139 138 138 138 138 137 137 137 