161 161 161 160 160 160 160 159 159 159 159 158 158 157 157 157 156 156 155 155 154 154 153 152 152 151 150 150 149 148 148 147 147 146 146 146 145 145 145 144 144 144 144 144 143 143 143 143 143 143 143 143 143 143 143 143 143 143 143 143 143 144 144 144 144 143 143 143 143 143 143 143 143 143 143 143 143 143 143 143 143 143 143 143 143 143 143 143 143 143 143 143 143 143 143 143 143 143 143 143 143 143 143 143 143 143 143 143 143 143 143 143 142 142 142 142 142 142 142 142 142 142 142 142 142 142 142 142 142 142 142 142 142 142 142 142 142 142 142 142 142 142 142 142 142 143 143 143 143 143 143 143 143 143 143 143 143 143 143 143 143 143 143 143 143 143 143 143 143 143 143 143 143 143 143 143 143 143 143 143 143 143 143 143 143 143 143 143 143 143 144 144 144 144 145 145 145 145 145 145 145 145 145 145 145 144 144 144 144 144 143 143 142 142 142 141 141 141 141 140 140 140 139 139 139 139 139 139 139 140 142 144 147 150 154 158 162 167 171 173 176 177 178 178 179 179 179 179 178 177 175 173 170 166 162 158 153 149 145 142 139 138 137 136 136 136 136 136 136 136 136 136 136 136 136 137 137 137 137 137 138 138 138 139 139 139 140 140 140 141 141 141 142 142 142 143 143 144 144 145 145 146 147 147 148 148 149 150 150 151 152 153 153 154 155 156 157 157 158 159 159 160 160 161 161 162 162 162 162 162 162 162 162 162 161 161 160 160 159 158 157 157 156 155 154 153 152 151 150 149 148 147 146 145 144 143 142 142 141 141 140 140 139 139 139 139 139 138 138 138 138 138 138 138 138 138 138 138 139 139 139 139 139 139 139 139 139 139 139 139 139 139 139 139 139 138 138 138 138 138 138 138 138 138 138 137 137 137 137 137 137 137 137 137 137 136 136 136 136 136 136 136 136 136 136 136 136 136 136 136 136 136 136 136 136 136 136 136 136 137 137 137 137 137 137 137 137 137 138 138 138 138 138 138 138 138 139 139 139 139 139 139 139 139 139 139 139 139 139 139 139 140 140 140 140 140 140 140 140 140 141 141 141 141 142 142 142 142 143 143 143 143 144 144 144 144 145 145 145 145 145 145 145 145 145 145 144 144 144 144 143 143 143 143 143 143 142 142 142 142 141 141 141 140 140 141 141 143 144 147 150 153 158 162 167 172 176 180 183 185 186 187 187 188 188 187 187 185 184 181 178 174 170 165 159 155 150 146 144 142 140 139 139 138 138 138 138 138 138 138 138 138 138 138 138 138 138 138 139 139 139 139 139 140 140 140 140 140 141 141 141 142 142 142 143 143 143 144 144 145 145 146 146 146 147 148 148 149 150 150 151 152 152 153 154 155 156 156 157 158 159 159 160 160 161 161 162 162 162 162 162 162 162 162 161 161 160 159 159 158 157 156 155 154 153 152 151 150 149 148 147 146 145 144 143 142 142 141 140 140 139 139 139 138 138 138 138 138 138 138 138 138 138 138 138 138 138 139 139 139 139 139 140 140 140 140 140 141 141 141 141 142 142 142 142 142 142 142 142 143 143 143 143 143 143 143 143 143 143 143 143 143 144 144 144 144 144 144 144 144 144 144 144 144 144 144 144 144 144 144 144 144 144 144 144 144 144 145 145 145 145 145 145 145 145 146 146 146 146 146 146 146 146 146 147 147 147 147 147 147 147 147 148 148 148 148 149 149 149 150 150 150 150 151 151 151 152 152 152 152 152 152 152 152 152 152 152 152 151 151 151 151 151 151 151 150 150 150 150 149 149 149 150 150 152 153 156 159 163 167 172 177 182 187 192 196 199 201 203 204 205 205 205 204 203 202 199 196 192 187 182 177 172 166 162 157 154 151 149 148 147 146 146 145 145 144 144 144 143 143 143 143 143 143 143 143 144 144 144 144 144 144 145 145 145 145 145 146 146 146 146 147 147 147 147 148 148 148 149 149 150 150 150 151 151 152 153 153 154 155 156 156 157 158 159 160 160 161 162 162 163 164 164 165 165 166 166 166 166 166 165 165 165 164 164 163 162 161 161 160 159 158 157 156 155 154 153 152 151 151 150 149 148 148 147 147 146 146 146 145 145 145 145 145 145 145 145 144 144 144 144 144 144 144 144 144 144 144 144 144 144 144 144 144 144 144 144 144 144 144 144 145 145 145 145 145 145 145 145 145 145 145 145 145 146 146 146 146 146 146 146 145 145 145 145 145 145 144 144 144 144 144 144 144 143 143 143 143 143 143 143 143 143 143 143 143 143 143 143 143 143 143 143 143 143 143 143 143 143 143 143 143 143 142 142 142 142 142 142 141 141 141 141 141 141 141 140 140 140 140 140 141 141 141 141 141 142 142 142 142 142 142 142 142 142 142 142 142 142 142 141 141 141 140 140 139 139 139 138 138 137 137 136 136 135 135 134 134 134 134 134 135 136 137 140 143 146 150 155 159 164 169 173 177 180 182 183 184 185 185 184 183 182 180 177 174 170 166 161 155 150 145 140 136 133 130 128 127 126 125 125 124 124 123 123 123 122 122 122 122 123 123 123 123 124 124 124 125 125 125 126 126 127 127 128 128 129 129 130 130 130 131 131 132 133 133 134 134 135 135 136 137 137 138 139 139 140 141 142 142 143 144 145 146 146 147 148 149 149 150 151 151 152 152 153 153 154 154 154 154 154 154 154 154 153 153 152 152 151 151 150 149 149 148 147 146 146 145 144 144 143 142 142 141 141 140 140 140 140 140 139 139 139 139 139 139 139 139 139 139 139 139 139 140 140 140 140 140 140 140 140 140 140 140 140 140 140 140 140 140 140 139 139 139 139 139 139 139 139 139 139 139 139 139 139 139 139 139 139 139 139 139 139 139 139 139 139 139 139 139 139 139 139 139 139 139 140 140 140 140 140 140 140 140 140 140 140 140 140 141 141 141 141 141 141 141 141 141 141 141 141 141 141 141 141 141 142 142 142 142 142 142 142 142 142 142 142 142 142 142 142 142 142 142 142 142 142 142 143 143 143 143 143 143 143 143 144 144 144 144 145 145 145 145 146 146 146 146 146 147 147 147 147 147 147 146 146 146 146 146 146 145 145 145 145 145 145 145 144 144 144 144 144 144 145 145 147 149 151 154 158 162 166 171 175 180 184 187 190 192 193 194 195 195 195 194 193 191 189 186 182 178 174 169 164 160 155 152 149 147 146 145 144 143 143 142 142 142 141 141 141 141 141 141 141 141 141 141 141 141 141 141 141 141 141 141 141 141 141 141 141 141 141 142 142 142 142 142 142 142 143 143 143 143 143 144 144 144 145 145 145 146 146 146 147 147 148 148 149 149 149 150 150 150 150 151 151 151 151 151 151 151 151 151 150 150 150 149 149 148 147 147 146 145 145 144 143 142 141 141 140 139 138 138 137 136 136 135 135 134 134 134 133 133 133 132 132 132 132 132 132 132 132 132 132 132 132 132 132 132 132 133 133 133 133 133 133 134 134 134 134 134 134 134 135 135 135 135 135 135 135 135 135 135 135 136 136 136 136 136 136 136 136 136 136 136 136 136 136 137 137 137 137 137 137 137 137 137 137 137 137 137 138 138 138 138 138 138 138 138 138 138 138 139 139 139 139 139 139 139 139 140 140 140 140 140 140 140 141 141 141 141 141 141 141 141 141 141 141 141 141 141 141 141 141 141 141 141 141 141 141 141 141 141 141 141 141 142 142 142 142 142 142 142 142 142 142 142 143 143 143 143 143 144 144 144 145 145 145 145 146 146 146 146 146 146 146 146 146 146 146 146 145 145 145 145 145 144 144 144 144 144 143 143 143 143 143 143 144 144 145 147 149 152 155 159 163 168 172 176 180 183 186 187 189 189 190 190 189 189 187 186 184 181 177 173 169 164 160 156 152 148 146 144 143 142 141 141 141 141 140 140 140 140 140 140 140 140 140 140 140 140 141 141 141 141 141 141 141 142 142 142 142 142 142 142 143 143 143 143 143 144 144 144 145 145 145 146 146 146 147 147 148 148 149 149 150 150 151 151 152 152 152 153 153 154 154 154 155 155 155 155 156 156 156 156 156 155 155 155 154 154 154 153 153 152 151 151 150 149 148 148 147 146 145 144 144 143 143 142 141 141 140 140 140 139 139 139 139 138 138 138 138 138 138 138 138 138 138 138 138 139 139 139 139 139 139 139 139 139 139 139 139 139 139 139 139 139 139 139 139 139 139 139 138 138 138 138 138 138 138 138 138 138 138 138 138 138 138 138 138 138 138 139 139 139 139 139 139 139 139 139 139 139 139 139 139 139 139 139 139 139 139 139 139 139 139 139 139 139 139 139 139 139 139 139 139 140 140 140 140 140 140 140 140 140 140 140 140 141 141 141 141 141 141 141 141 142 142 142 142 142 142 142 142 142 142 142 143 143 143 143 143 143 143 143 143 144 144 144 144 144 145 145 145 146 146 146 146 146 147 147 147 147 147 147 147 147 147 147 147 147 146 146 146 146 146 145 145 145 145 145 144 144 144 144 144 143 143 144 144 145 147 149 151 154 158 161 165 170 174 177 180 183 184 186 186 187 187 186 186 185 183 181 179 176 172 168 163 159 155 151 148 145 143 142 141 141 140 140 140 139 139 139 139 139 139 139 139 139 139 139 139 139 139 139 139 139 140 140 140 140 140 141 141 141 141 142 142 142 143 143 143 144 144 144 145 145 145 146 146 147 147 148 148 149 149 150 150 151 151 152 153 153 154 154 155 155 155 156 156 156 157 157 157 157 157 157 156 156 156 155 155 155 154 153 153 152 151 151 150 149 148 147 147 146 145 144 144 143 142 142 141 141 140 140 139 139 139 138 138 138 138 138 138 138 138 138 138 138 138 138 138 138 138 138 138 138 138 138 138 138 138 138 138 138 138 138 139 139 139 139 139 139 139 139 139 139 139 139 139 139 139 139 139 138 138 138 138 138 138 138 138 138 138 138 138 138 138 138 138 138 138 138 138 138 138 138 138 138 138 138 138 138 138 138 138 138 139 139 139 139 139 139 139 139 139 139 139 139 139 139 139 139 140 140 140 140 140 140 140 141 141 141 142 142 142 143 143 143 144 144 144 144 144 145 145 145 145 145 145 145 144 144 144 144 144 144 143 143 143 143 143 143 143 142 142 142 142 142 142 143 143 145 146 149 152 155 159 163 168 172 176 179 182 183 184 185 185 185 185 184 183 182 180 178 175 171 167 163 158 153 149 146 143 142 141 140 140 140 139 139 139 139 139 139 139 139 139 140 140 140 140 140 140 140 140 141 141 141 141 141 142 142 142 142 142 143 143 143 143 144 144 144 145 145 146 146 147 147 148 148 149 149 150 151 151 152 153 154 154 155 156 156 157 158 158 159 160 160 161 161 162 162 162 163 163 163 163 163 162 162 162 161 161 160 159 159 158 157 156 155 154 153 152 151 150 149 148 148 147 146 145 145 144 143 143 142 142 142 141 141 141 141 140 140 140 140 140 141 141 141 141 141 141 141 141 141 141 141 142 142 142 142 142 142 142 142 142 142 142 142 142 142 142 142 142 142 141 141 141 141 141 141 141 141 141 141 140 140 140 140 140 140 140 140 140 140 140 140 139 139 139 139 139 139 139 139 139 139 139 139 139 139 139 139 139 139 139 139 139 139 139 139 140 140 140 140 140 140 140 141 141 141 142 142 142 142 143 143 143 143 143 143 143 143 144 144 143 143 143 143 143 143 142 142 142 142 142 141 141 141 141 141 141 141 140 140 140 141 141 142 144 146 149 152 156 160 164 169 173 177 181 184 186 187 188 188 188 188 187 186 185 183 180 176 173 168 163 159 154 150 146 143 141 140 139 138 138 138 137 137 137 137 137 137 137 137 137 137 137 138 138 138 138 138 139 139 139 140 140 140 140 141 141 141 142 142 142 143 143 143 144 144 145 145 146 147 147 148 148 149 150 150 151 152 152 153 154 155 155 156 157 158 159 159 160 161 161 162 162 163 163 163 163 164 164 164 163 163 163 162 162 161 160 160 159 158 157 156 155 154 153 152 151 150 149 148 147 146 146 145 144 143 143 142 142 141 141 141 140 140 140 140 140 140 140 140 140 140 140 140 140 140 140 140 140 140 140 141 141 141 141 141 141 141 141 141 141 141 141 141 141 141 141 141 141 141 141 141 141 141 141 141 141 141 141 141 141 141 141 141 141 141 141 141 141 141 141 141 140 140 140 140 140 140 140 140 140 140 140 140 140 140 140 140 140 140 140 140 140 140 140 140 140 140 140 140 140 140 140 140 140 140 140 141 141 141 142 142 142 142 142 143 143 143 143 144 144 144 144 144 144 144 143 143 143 143 142 142 142 142 141 141 141 141 140 140 140 140 140 139 139 139 139 140 141 142 144 147 151 154 159 164 169 174 179 183 187 190 193 194 195 196 196 196 195 194 192 189 186 182 177 172 167 161 156 151 147 144 142 140 139 137 137 136 136 135 135 135 134 134 134 134 134 134 135 135 135 135 135 135 135 135 136 136 136 136 136 137 137 137 137 137 138 138 138 138 139 139 139 140 140 140 141 141 142 142 143 143 143 144 144 145 145 146 147 147 148 148 149 149 150 150 151 151 151 152 152 152 152 152 152 152 152 152 152 151 151 151 150 149 149 148 147 146 146 145 144 143 142 142 141 140 139 139 138 137 137 136 136 135 135 135 134 134 134 134 134 134 133 133 133 133 133 133 133 133 134 134 134 134 134 134 134 134 134 134 134 134 135 135 135 135 135 135 135 135 135 135 135 135 135 135 135 135 135 135 135 136 136 136 136 136 136 136 136 136 136 136 136 136 136 136 136 136 136 136 136 136 136 136 136 136 136 136 136 136 136 136 136 136 136 136 136 136 136 136 136 136 136 136 136 136 137 137 137 137 137 137 137 137 137 137 137 137 138 138 138 138 138 138 138 138 138 138 138 138 138 139 139 139 139 140 140 140 140 141 141 141 142 142 142 142 143 143 143 143 143 144 144 144 143 143 143 143 143 143 142 142 142 142 142 142 141 141 141 141 141 141 140 140 140 141 142 143 145 148 151 155 159 164 169 173 178 182 185 188 190 192 193 193 194 194 193 192 190 187 184 180 175 171 166 161 156 151 148 145 143 141 140 139 139 138 138 137 137 137 137 137 137 137 137 137 137 137 137 137 138 138 138 138 138 139 139 139 140 140 140 140 140 141 141 141 142 142 142 142 143 143 143 144 144 145 145 145 146 146 147 147 147 148 148 149 149 150 150 151 151 152 152 153 153 154 154 154 155 155 155 155 155 155 155 155 155 154 154 154 153 153 152 152 151 150 150 149 148 147 147 146 145 144 144 143 143 142 141 141 141 140 140 140 139 139 139 139 139 139 139 139 138 138 138 139 139 139 139 139 139 139 139 140 140 140 140 140 140 140 140 140 140 140 140 140 140 140 140 140 140 140 140 140 140 140 140 140 140 140 140 140 140 141 141 141 141 141 141 141 141 141 141 141 141 141 141 141 141 141 141 141 141 141 141 141 141 141 141 141 141 141 141 141 141 141 141 141 141 141 141 141 141 141 141 141 141 141 141 141 141 141 141 142 142 142 142 142 142 143 143 143 143 143 143 143 144 144 144 144 144 144 144 144 144 144 144 144 144 145 145 145 145 145 145 145 145 145 145 145 145 145 145 144 144 144 144 144 144 144 144 144 144 144 144 144 144 144 144 144 144 145 145 145 145 146 146 146 146 147 147 147 147 148 148 148 148 148 148 148 148 148 147 147 147 147 146 146 146 146 146 145 145 145 145 144 144 144 143 143 143 143 144 144 146 148 150 153 156 160 165 169 174 178 181 184 187 188 189 190 190 190 190 189 188 186 183 180 177 173 168 163 159 154 151 148 145 144 143 142 141 141 141 140 140 140 140 140 140 140 140 140 140 140 140 141 141 141 141 141 141 142 142 142 142 142 143 143 143 143 144 144 144 144 145 145 145 146 146 146 147 147 148 148 148 149 149 150 150 151 151 152 152 153 153 154 154 154 155 155 156 156 156 156 156 157 157 157 157 157 156 156 156 156 155 155 154 154 153 153 152 151 150 150 149 148 147 146 146 145 144 143 142 142 141 140 140 139 139 138 138 138 138 137 137 137 137 137 137 137 137 137 137 137 137 137 137 137 137 137 137 137 137 137 137 137 137 137 137 137 137 137 137 137 137 137 137 137 137 137 137 137 137 137 137 137 137 137 137 137 137 137 137 137 137 137 137 137 137 137 137 137 137 137 137 137 137 137 137 137 137 137 137 137 137 137 137 137 137 137 137 137 137 137 137 138 138 138 138 138 138 138 138 138 138 138 138 138 138 138 139 139 139 139 139 139 139 140 140 140 140 140 140 140 140 140 140 140 141 141 141 141 141 141 141 141 141 141 141 141 141 142 142 142 142 143 143 143 144 144 145 145 145 145 146 146 146 146 146 146 147 146 146 146 146 146 146 145 145 145 145 144 144 144 144 144 143 143 143 142 142 142 142 143 144 145 147 150 153 157 161 166 170 175 179 183 186 188 190 191 191 191 191 191 190 188 186 183 180 176 171 166 161 156 151 147 144 142 140 139 138 138 138 137 137 137 137 136 136 136 136 136 136 136 137 137 137 137 137 137 137 137 138 138 138 138 138 138 138 138 139 139 139 139 139 140 140 140 141 141 141 142 142 143 143 144 144 145 145 146 147 147 148 149 149 150 150 151 151 152 153 153 154 154 154 155 155 155 155 155 155 155 155 155 155 154 154 153 153 152 152 151 150 149 149 148 147 146 146 145 144 143 142 142 141 141 140 139 139 138 138 138 137 137 137 137 137 136 136 136 136 137 137 137 137 137 137 137 137 137 137 137 137 137 137 138 138 138 138 138 138 138 138 138 138 138 138 138 138 138 138 138 138 138 138 138 138 138 138 138 138 138 138 138 138 138 138 138 137 137 137 137 137 137 137 137 137 137 137 137 137 137 137 137 137 137 137 137 137 137 137 137 137 137 137 137 137 137 137 137 137 137 137 137 137 137 137 137 138 138 138 138 138 138 138 138 138 138 138 138 138 138 138 138 138 138 138 138 138 138 138 138 138 139 139 139 139 139 139 139 139 139 139 139 139 139 139 139 139 140 140 140 140 141 141 141 142 142 142 143 143 143 143 144 144 144 144 144 144 144 144 144 144 143 143 143 143 143 142 142 142 142 142 141 141 141 141 140 140 140 140 141 142 143 145 147 150 153 158 162 167 172 177 181 185 188 190 192 193 194 194 194 194 193 191 189 186 183 179 174 169 164 159 154 150 147 145 143 142 141 140 140 139 139 139 139 138 138 138 138 138 138 138 138 139 139 139 139 139 139 139 140 140 140 140 140 140 140 141 141 141 141 141 141 142 142 142 142 143 143 143 144 144 144 145 145 146 146 147 147 148 148 149 149 150 150 151 151 152 152 152 153 153 153 154 154 154 154 154 154 154 154 154 154 153 153 153 152 152 151 150 150 149 149 148 147 147 146 145 144 144 143 142 142 141 141 140 140 139 139 139 138 138 138 138 138 137 137 137 137 138 138 138 138 138 138 138 138 138 138 138 138 138 139 139 139 139 139 139 139 139 139 139 139 139 139 139 139 139 139 139 139 139 139 139 139 139 139 139 139 139 139 139 139 139 139 139 139 139 139 139 139 139 139 139 139 139 139 139 139 139 139 139 139 139 140 140 140 140 140 140 140 140 140 140 140 140 140 140 140 140 140 140 140 140 140 141 141 141 141 141 141 141 141 141 141 141 142 142 142 142 142 142 142 142 142 142 142 142 142 142 142 142 142 142 142 142 142 142 142 142 143 143 143 143 143 144 144 145 145 145 145 146 146 146 146 146 147 147 147 147 147 147 147 147 147 146 146 146 146 146 145 145 145 145 145 144 144 144 144 144 143 143 143 142 142 142 142 142 143 143 145 146 149 152 155 159 164 168 173 177 181 184 186 188 190 190 191 191 190 190 188 187 184 181 177 173 169 164 159 155 151 147 145 143 142 141 140 140 140 139 139 139 139 139 139 139 139 139 139 139 140 140 140 140 140 140 141 141 141 141 141 141 141 142 142 142 142 142 142 142 143 143 143 143 144 144 144 145 145 145 146 146 147 147 148 148 149 149 150 150 151 151 152 152 153 153 154 154 154 155 155 155 155 155 156 156 156 156 155 155 155 154 154 153 153 152 152 151 150 150 149 148 148 147 146 145 144 144 143 142 142 141 141 140 140 140 139 139 139 139 139 139 139 139 139 139 139 139 139 139 139 139 139 139 139 139 139 140 140 140 140 140 140 140 140 140 140 140 140 140 140 140 140 140 140 140 140 140 140 140 140 140 140 140 140 140 140 140 140 140 140 140 140 140 140 140 140 140 140 140 140 140 140 140 140 140 140 140 140 140 140 140 140 140 140 140 140 140 140 141 141 141 141 141 141 141 141 141 141 141 141 141 141 141 141 141 141 141 141 141 141 141 142 142 142 142 142 142 142 142 142 142 142 142 142 142 142 142 143 143 143 143 143 143 143 143 144 144 144 144 144 145 145 145 146 146 146 147 147 147 147 148 148 148 148 148 148 148 148 148 148 148 148 148 147 147 147 146 146 146 146 145 145 145 144 144 144 144 144 143 143 143 142 142 142 143 143 145 146 148 151 154 158 162 166 171 175 178 181 184 186 187 187 188 188 188 187 186 184 182 179 176 172 167 163 158 154 150 147 145 143 142 141 141 140 140 140 140 139 139 139 139 139 140 140 140 140 140 140 140 141 141 141 141 141 142 142 142 142 142 143 143 143 143 143 144 144 144 144 145 145 145 146 146 146 147 147 148 148 149 149 150 150 151 151 152 153 153 154 154 155 155 156 156 157 157 157 157 158 158 158 158 158 158 158 158 157 157 157 156 156 155 155 154 154 153 152 152 151 151 150 149 148 148 147 146 146 145 145 145 144 144 143 143 143 143 143 142 142 142 142 142 142 142 143 143 143 143 143 143 143 143 143 143 143 143 143 144 144 144 144 144 144 144 144 144 144 144 144 144 144 144 143 143 143 143 143 143 143 143 143 143 143 143 143 143 143 143 143 143 143 143 143 143 143 143 143 143 144 144 144 144 144 144 144 144 144 144 144 144 144 144 144 144 144 144 144 144 144 144 144 144 144 144 144 144 144 144 144 144 144 144 145 145 145 145 145 145 145 145 145 145 145 145 145 145 145 145 145 145 145 145 145 145 145 145 145 145 145 145 145 145 145 146 146 146 146 146 147 147 147 147 148 148 148 149 149 149 149 149 150 150 150 150 150 150 150 150 149 149 149 149 149 148 148 148 147 147 147 147 146 146 146 146 145 145 145 145 144 144 144 144 144 145 147 148 151 154 157 161 165 169 173 177 180 182 184 185 185 186 186 186 186 185 183 181 179 176 172 168 164 160 156 152 149 146 145 144 143 143 142 142 142 142 142 142 142 142 142 142 142 142 143 143 143 143 144 144 144 144 144 145 145 145 145 146 146 146 146 147 147 147 148 148 148 149 149 149 150 150 150 151 151 152 152 153 153 154 154 155 155 156 156 157 157 158 158 159 159 160 160 161 161 161 161 162 162 162 162 162 162 162 161 161 161 160 160 159 158 158 157 156 155 154 154 153 152 151 150 149 148 147 147 146 145 145 144 143 143 143 142 142 142 141 141 141 141 141 141 141 141 141 141 140 140 140 140 141 141 141 141 141 141 141 141 141 141 141 141 141 141 141 141 141 141 141 141 141 141 141 141 141 140 140 140 140 140 140 140 140 140 140 140 140 140 140 140 140 140 140 140 140 140 139 139 139 139 139 139 139 139 139 139 139 139 139 139 139 139 139 139 139 139 139 139 139 139 139 139 139 139 139 140 140 140 140 140 140 140 140 140 140 140 140 140 140 140 140 140 140 140 140 140 141 141 141 141 141 141 141 141 142 142 142 142 143 143 143 143 144 144 144 144 145 145 145 145 145 145 145 145 145 145 145 145 144 144 144 144 143 143 143 143 143 142 142 142 142 142 142 141 141 141 141 141 141 141 142 143 144 146 149 152 155 159 163 168 172 176 179 181 183 184 185 185 185 185 184 183 182 180 177 174 170 166 162 158 153 150 146 144 142 141 140 140 139 139 139 139 139 139 139 139 139 139 139 139 139 140 140 140 140 140 140 141 141 141 141 141 142 142 142 142 143 143 143 143 144 144 144 144 145 145 146 146 146 147 147 148 148 149 149 150 150 151 152 152 153 154 154 155 155 156 156 157 157 158 158 158 159 159 159 159 159 159 159 159 158 158 157 157 156 156 155 154 154 153 152 151 150 149 149 148 147 146 146 145 144 144 143 142 142 141 141 141 140 140 140 140 140 140 140 140 140 140 140 140 140 140 140 140 140 140 140 140 140 140 140 140 140 141 141 141 141 141 141 141 141 141 141 141 141 141 141 142 142 142 142 142 142 142 142 142 142 141 141 141 141 141 141 141 141 141 141 141 141 141 141 141 141 141 141 141 141 141 141 141 141 141 141 141 141 141 142 142 142 142 142 142 142 142 142 142 142 142 142 142 142 142 142 142 142 142 142 142 142 142 142 142 142 142 142 142 142 142 142 143 143 143 143 143 144 144 144 145 145 145 146 146 146 146 147 147 147 147 147 147 147 147 147 147 146 146 146 146 145 145 145 144 144 144 144 144 143 143 143 143 143 142 142 142 142 141 141 142 142 143 144 145 147 150 153 157 161 166 170 174 177 179 181 182 183 184 184 184 184 183 182 180 178 176 172 169 164 159 155 151 148 145 143 142 141 141 140 140 140 140 140 140 139 139 139 139 139 140 140 140 140 140 140 140 141 141 141 141 141 141 141 142 142 142 142 142 143 143 143 143 143 144 144 144 145 145 145 146 146 147 147 148 148 148 149 149 150 151 151 152 152 153 153 154 154 155 155 156 156 157 157 157 157 158 158 158 158 157 157 157 157 156 156 155 155 154 153 153 152 151 150 150 149 148 147 146 145 145 144 143 143 142 142 141 141 140 140 139 139 139 139 139 138 138 138 138 138 138 139 139 139 139 139 139 139 139 139 139 139 139 139 140 140 140 140 140 140 140 140 140 140 140 140 140 140 140 140 140 140 140 140 140 139 139 139 139 139 139 139 139 139 139 139 139 139 139 139 139 139 139 138 138 138 138 139 139 139 139 139 139 139 139 139 139 139 139 139 139 139 139 139 139 139 139 139 139 140 140 140 140 140 140 140 140 140 140 140 140 140 141 141 141 141 141 141 141 141 141 141 142 142 142 142 142 142 143 143 143 143 143 144 144 144 145 145 145 145 146 146 146 146 146 146 146 146 147 147 146 146 146 146 145 145 145 145 144 144 144 143 143 143 143 142 142 142 142 141 141 141 141 141 141 141 141 142 143 145 147 150 153 157 161 165 169 173 177 180 182 184 185 186 186 186 186 185 184 183 181 178 174 170 166 162 157 153 149 146 144 142 140 140 139 139 138 138 138 138 138 137 137 137 138 138 138 138 138 138 138 138 139 139 139 139 139 140 140 140 140 141 141 141 141 141 142 142 142 143 143 143 144 144 145 145 145 146 146 147 147 148 148 149 149 150 150 151 151 152 153 153 154 154 155 155 156 156 156 157 157 157 157 157 157 157 157 157 156 156 155 155 154 154 153 152 151 151 150 149 148 147 147 146 145 145 144 143 142 142 141 141 140 140 140 139 139 139 139 138 138 138 138 138 138 138 138 138 138 138 138 138 138 138 138 138 138 138 138 138 138 138 138 138 138 139 139 139 138 138 138 138 138 138 138 138 138 138 138 138 138 138 138 138 138 138 138 138 138 138 138 138 138 138 138 138 138 138 138 138 138 138 138 138 138 138 138 138 138 138 138 138 138 138 138 138 138 138 138 138 138 138 138 139 139 139 139 139 139 139 139 139 139 139 139 139 139 139 139 139 139 139 139 140 140 140 140 140 140 140 140 140 140 140 141 141 141 141 141 141 141 142 142 142 143 143 143 143 144 144 144 145 145 145 145 145 145 145 145 145 145 145 145 145 144 144 144 144 143 143 143 143 142 142 142 142 141 141 141 141 140 140 140 140 140 141 142 143 145 147 150 154 158 162 166 171 175 178 181 184 185 186 187 187 187 187 186 185 183 180 177 174 170 165 161 156 152 148 145 143 141 140 140 139 139 138 138 138 138 138 138 138 138 138 138 138 138 138 138 139 139 139 139 139 139 140 140 140 140 140 141 141 141 141 141 142 142 142 143 143 143 144 144 144 145 145 146 146 146 147 147 148 148 149 150 150 151 151 152 153 153 154 154 155 155 156 156 157 157 157 158 158 158 158 158 158 158 157 157 157 156 156 155 154 154 153 152 152 151 150 149 149 148 147 146 146 145 144 144 143 143 143 142 142 141 141 141 141 141 140 140 140 140 140 140 140 140 140 140 140 140 141 141 141 141 141 141 141 141 141 141 141 141 142 142 142 142 142 142 142 142 142 142 142 142 142 142 141 141 141 141 141 141 141 141 141 141 141 141 141 141 141 141 141 141 141 141 141 141 140 140 140 140 140 140 140 140 140 140 140 140 140 140 140 140 140 140 140 140 140 140 140 140 140 140 140 140 140 140 140 140 140 140 140 140 140 140 140 140 140 140 140 140 140 140 140 141 141 141 141 141 141 141 141 141 141 141 141 141 141 141 141 141 142 142 142 142 142 142 143 143 143 143 144 144 144 144 145 145 145 145 145 145 146 146 145 145 145 145 145 145 144 144 144 144 143 143 143 143 142 142 142 142 142 142 141 141 141 141 141 141 141 141 142 143 145 147 150 153 157 162 166 171 175 178 182 184 186 187 188 188 188 188 187 186 184 182 179 176 172 167 162 158 153 150 146 144 142 141 140 140 139 139 139 138 138 138 138 138 138 138 138 138 138 139 139 139 139 139 139 140 140 140 140 140 140 141 141 141 141 141 141 142 142 142 142 143 143 143 144 144 144 145 145 146 146 147 147 148 148 149 149 150 151 151 152 152 153 153 154 154 155 155 156 156 156 157 157 157 157 157 157 157 156 156 156 155 155 154 153 153 152 151 150 150 149 148 147 146 145 145 144 143 143 142 141 141 140 140 140 139 139 139 138 138 138 138 138 138 138 138 138 138 138 138 138 138 138 138 138 138 138 138 138 138 139 139 139 139 139 139 139 139 139 140 140 140 140 140 140 140 140 140 140 140 139 139 139 139 139 139 139 139 139 139 139 139 139 139 139 139 139 139 139 139 139 139 139 139 139 139 139 139 139 139 139 139 139 139 139 139 139 139 139 139 139 139 139 139 139 139 139 139 139 139 139 139 139 139 139 139 139 139 139 139 139 139 139 139 139 139 139 139 139 139 139 139 139 139 139 139 139 139 139 139 139 139 139 139 139 139 139 139 139 139 139 139 139 139 139 140 140 140 140 140 140 141 141 141 142 142 142 143 143 143 144 144 144 144 145 145 145 145 145 146 146 145 145 145 145 145 145 145 144 144 144 144 144 143 143 143 143 143 143 142 142 142 142 142 141 141 142 142 143 144 146 148 151 155 159 163 168 172 176 180 183 185 187 188 189 189 189 189 188 187 185 183 180 176 172 167 163 158 154 150 146 144 142 141 140 140 139 139 138 138 138 138 138 138 138 138 138 138 138 138 138 138 138 138 139 139 139 139 139 140 140 140 140 140 140 141 141 141 141 142 142 142 142 143 143 144 144 144 145 145 146 146 147 148 148 149 149 150 150 151 152 152 153 153 154 154 155 155 156 156 156 156 156 157 157 157 157 156 156 156 155 155 154 154 153 152 152 151 150 149 149 148 147 146 145 144 144 143 142 142 141 140 140 139 139 138 138 138 138 137 137 137 137 137 137 136 136 136 136 136 136 136 136 137 137 137 137 137 137 137 137 137 137 137 137 137 137 138 138 138 138 138 138 138 138 138 138 138 138 138 138 138 138 138 138 138 138 138 138 138 138 138 138 138 138 138 138 138 137 137 137 137 137 137 137 137 137 137 137 137 137 138 138 138 138 138 138 138 138 138 138 138 138 138 138 138 138 139 139 139 139 139 139 139 139 139 139 139 140 140 140 140 140 140 140 140 140 140 140 140 140 140 140 141 141 141 141 141 141 141 141 141 141 141 141 141 141 141 141 141 142 142 142 142 143 143 143 144 144 144 145 145 145 145 146 146 146 146 146 146 146 146 146 146 146 146 145 145 145 145 144 144 144 144 144 143 143 143 143 143 142 142 142 142 142 142 142 143 144 146 148 150 154 158 162 167 172 176 180 184 186 188 190 191 192 192 192 191 190 188 186 183 180 176 171 166 162 157 153 149 146 144 143 142 141 141 140 140 140 140 140 140 140 140 140 140 140 140 141 141 141 141 141 142 142 142 142 143 143 143 144 144 144 144 145 145 145 146 146 146 147 147 147 148 148 149 149 149 150 150 151 151 152 153 153 154 154 155 156 156 157 158 158 159 159 160 161 161 162 162 163 163 163 163 164 164 164 164 164 163 163 163 162 162 161 161 160 159 158 158 157 156 155 155 154 153 152 152 151 151 150 150 149 149 149 148 148 148 148 148 147 147 147 147 148 148 148 148 148 148 148 148 149 149 149 149 149 149 150 150 150 150 150 151 151 151 151 151 151 151 151 151 151 152 152 152 152 152 152 152 152 152 152 152 152 152 152 152 152 152 152 152 152 152 153 153 153 153 153 153 153 153 153 153 153 153 153 153 153 153 154 154 154 154 154 154 154 154 154 154 155 155 155 155 155 155 155 155 156 156 156 156 156 156 156 156 156 157 157 157 157 157 157 157 157 157 157 158 158 158 158 158 158 158 158 158 158 158 159 159 159 159 159 159 159 159 160 160 160 160 160 161 161 161 162 162 162 163 163 163 163 164 164 164 164 164 164 164 164 164 164 164 164 163 163 163 163 162 162 162 162 161 161 161 161 160 160 160 160 160 159 159 159 158 159 159 159 160 162 164 167 170 174 178 183 187 192 196 200 203 205 207 208 208 208 208 208 207 205 203 200 197 193 188 184 179 174 169 166 163 160 158 157 157 156 156 155 155 155 154 154 154 154 154 154 154 155 155 155 155 155 155 155 155 156 156 156 156 156 156 156 157 157 157 157 157 157 158 158 158 159 159 159 160 160 160 161 161 162 162 162 163 163 164 164 165 166 166 167 167 168 168 169 169 170 170 170 171 171 171 172 172 172 172 172 172 172 172 171 171 170 170 169 169 168 167 167 166 165 164 163 163 162 161 160 159 159 158 157 157 156 156 155 155 154 154 154 153 153 153 153 152 152 152 152 152 152 152 152 152 152 152 152 152 152 152 152 152 152 152 152 152 152 152 152 152 152 152 152 152 152 152 152 152 152 152 152 152 152 152 151 151 151 151 151 151 151 151 151 151 150 150 150 150 150 150 150 149 149 149 149 149 149 149 149 148 148 148 148 148 148 148 148 148 148 148 148 148 148 148 148 148 148 148 148 148 148 148 148 148 148 148 148 148 148 148 147 147 147 147 148 148 148 147 147 147 147 147 147 147 147 147 147 147 148 148 148 148 148 149 149 149 149 150 150 150 150 151 151 151 151 151 151 152 152 152 151 151 151 151 151 150 150 150 150 149 149 149 149 148 148 148 148 147 147 147 147 146 146 146 146 146 146 146 147 148 150 152 155 159 163 167 171 176 180 184 187 190 191 193 193 194 194 193 193 191 190 187 184 180 176 172 167 162 157 153 150 147 146 144 143 143 142 142 141 141 141 141 140 140 140 140 140 140 140 141 141 141 141 141 141 141 141 142 142 142 142 142 142 142 143 143 143 143 143 143 143 144 144 144 145 145 145 145 146 146 147 147 147 148 148 149 149 150 150 151 151 152 152 153 153 154 154 154 155 155 155 155 156 156 156 156 156 155 155 155 154 154 153 153 152 152 151 150 149 149 148 147 146 145 144 143 143 142 141 141 140 139 139 138 138 137 137 137 136 136 136 136 135 135 135 135 135 135 135 135 135 135 135 135 135 135 136 136 136 136 136 136 136 136 136 136 136 136 136 136 136 137 137 137 137 137 137 137 137 137 137 137 137 137 137 137 137 137 137 137 137 137 137 137 137 137 137 137 136 136 136 136 136 136 136 136 136 136 136 136 136 136 136 136 136 136 136 136 136 136 136 136 136 136 136 136 137 137 136 136 136 136 136 136 136 137 137 137 137 137 137 138 138 138 139 139 139 140 140 140 141 141 141 141 141 141 141 141 141 141 141 141 140 140 140 139 139 139 139 138 138 138 138 137 137 137 137 136 136 136 136 137 138 139 141 144 147 150 154 158 163 167 171 175 178 180 182 183 183 184 184 183 183 181 179 177 174 171 167 162 158 153 149 145 142 140 138 137 136 136 135 135 135 134 134 134 134 134 134 134 134 134 135 135 135 135 135 135 136 136 136 136 136 136 137 137 137 137 137 138 138 138 138 139 139 139 139 140 140 141 141 141 142 142 143 143 144 144 145 145 146 146 147 147 148 148 149 149 150 150 151 151 152 152 152 153 153 153 153 153 153 152 152 152 151 151 150 150 149 148 148 147 146 145 144 143 143 142 141 140 139 139 138 138 137 137 136 136 136 135 135 135 135 135 135 134 134 134 134 135 135 135 135 135 135 135 135 135 136 136 136 136 136 136 136 136 136 136 136 136 136 136 136 136 137 137 137 137 137 137 137 137 137 137 137 137 137 137 137 137 137 137 137 137 137 137 137 137 137 137 137 137 137 137 137 137 137 137 137 137 137 137 137 137 137 137 138 138 138 138 138 138 138 138 138 138 138 138 138 138 138 138 138 139 139 139 139 139 139 139 139 139 139 139 139 139 139 139 139 139 139 139 139 139 139 139 139 139 139 139 139 140 140 140 140 141 141 141 142 142 142 143 143 143 143 144 144 144 144 144 144 144 144 143 143 143 143 143 143 142 142 142 142 142 142 141 141 141 141 141 141 141 141 142 143 145 147 150 153 157 161 166 170 174 178 181 184 186 187 187 188 188 188 187 186 184 182 179 175 171 167 162 158 153 149 146 144 142 141 140 139 139 138 138 138 137 137 137 137 137 137 137 137 137 137 137 137 138 138 138 138 138 138 139 139 139 139 139 140 140 140 140 141 141 141 141 142 142 142 142 143 143 143 144 144 144 145 145 146 146 147 147 148 149 149 150 150 151 152 152 153 153 154 154 154 155 155 155 155 155 155 155 155 155 154 154 153 153 152 152 151 150 150 149 148 147 147 146 145 144 143 143 142 141 141 140 140 139 139 138 138 137 137 137 137 137 137 136 136 136 136 136 136 137 137 137 137 137 137 137 137 137 137 137 137 137 137 137 137 137 137 137 137 137 137 137 137 137 137 137 137 137 137 137 137 137 137 137 137 137 137 137 137 137 137 137 137 137 137 137 137 137 137 137 137 137 137 137 137 137 137 137 137 137 137 137 137 137 137 138 138 137 137 138 138 138 138 138 138 138 138 138 138 138 138 138 138 138 138 138 139 139 139 139 139 139 139 139 139 139 139 139 140 140 140 140 140 140 140 140 140 140 140 140 140 141 141 141 142 142 142 143 143 143 144 144 145 145 145 146 146 146 147 147 147 147 147 147 147 147 146 146 146 146 146 145 145 145 145 145 144 144 144 144 143 143 143 143 144 144 145 147 149 152 155 159 164 168 173 177 181 184 186 188 189 189 190 190 189 188 187 186 183 180 177 173 168 163 159 154 150 147 144 143 141 140 140 140 139 139 139 139 139 138 138 138 138 138 138 138 138 138 138 139 139 139 139 139 139 139 140 140 140 140 140 141 141 141 141 142 142 142 143 143 143 144 144 145 145 146 146 147 147 148 148 149 149 150 151 151 152 153 153 154 154 155 155 156 156 157 157 157 158 158 158 158 158 158 158 158 157 157 157 156 155 155 154 153 152 151 150 150 149 148 147 146 145 144 143 142 142 141 140 140 140 139 139 138 138 138 137 137 137 137 137 137 137 137 137 137 137 137 137 137 137 137 138 138 138 138 138 138 138 138 138 138 138 138 138 138 138 138 138 138 138 138 138 138 138 138 138 138 138 138 138 138 138 138 138 138 138 138 138 138 138 138 138 138 138 138 138 138 138 138 138 138 138 138 138 138 138 138 138 138 138 138 138 138 139 139 139 139 139 139 139 139 139 139 139 139 139 139 139 139 139 139 139 139 139 139 139 139 139 139 139 139 140 140 140 140 140 140 140 140 140 140 140 140 140 140 140 141 141 141 141 142 142 142 143 143 143 143 144 144 144 145 145 145 145 145 145 145 145 145 145 144 144 144 144 143 143 143 143 143 142 142 142 142 142 142 141 141 141 141 141 142 142 144 146 148 151 155 159 163 168 173 177 182 185 188 190 191 192 193 193 193 193 192 190 188 185 181 177 172 168 163 158 154 150 148 146 144 143 142 142 141 141 141 140 140 140 140 140 139 139 139 140 140 140 140 140 140 140 140 141 141 141 141 141 141 141 142 142 142 142 142 143 143 143 143 143 144 144 144 145 145 145 146 146 147 147 148 148 149 149 150 150 151 151 152 152 153 153 154 154 155 155 156 156 156 156 157 157 157 157 156 156 156 156 155 155 154 154 153 152 151 151 150 149 148 147 146 145 145 144 143 142 142 141 141 140 140 139 139 138 138 138 138 138 137 137 137 137 137 137 137 137 137 137 137 137 137 138 138 138 138 138 138 138 138 138 138 138 138 138 138 139 139 139 139 139 139 139 139 139 139 139 139 139 139 139 139 139 139 139 139 139 139 139 139 139 139 139 139 139 139 139 139 139 139 139 139 139 139 139 140 140 140 140 140 140 140 140 140 140 140 140 140 140 140 140 141 141 141 141 141 141 141 141 141 141 141 141 141 141 141 141 142 142 142 142 142 142 142 142 142 142 142 143 143 143 143 143 143 143 143 143 143 143 143 143 143 143 144 144 144 144 145 145 145 145 146 146 146 147 147 147 148 148 148 148 148 148 148 148 148 148 148 147 147 147 147 146 146 145 145 145 144 144 143 143 143 142 142 142 141 141 140 140 140 140 140 141 142 144 146 149 152 156 161 165 170 175 179 182 185 187 189 190 191 191 191 190 189 188 185 182 179 175 170 165 160 156 151 147 144 142 141 140 139 138 137 137 137 137 136 136 136 136 136 136 136 137 137 137 137 137 138 138 138 138 138 139 139 139 139 139 140 140 140 140 141 141 141 142 142 142 143 143 143 144 144 145 145 145 146 147 147 148 148 149 149 150 150 151 152 152 153 153 154 154 155 155 155 156 156 156 156 156 157 157 156 156 156 156 155 155 154 154 153 153 152 151 150 149 149 148 147 146 145 145 144 143 143 142 141 141 140 140 139 139 139 138 138 138 138 138 138 138 138 138 138 138 138 138 138 138 138 138 138 138 138 138 138 138 138 138 138 138 138 138 138 138 138 138 138 138 138 138 138 138 138 138 138 138 138 138 138 138 138 138 138 138 138 138 139 138 139 139 139 139 139 139 139 139 139 139 139 139 139 139 139 139 139 139 139 139 139 140 139 140 140 140 140 140 140 140 140 140 140 140 140 140 140 140 140 140 140 140 140 140 140 141 141 140 141 141 141 141 141 141 141 141 141 141 141 141 141 141 141 141 141 141 141 142 142 142 142 142 142 142 142 142 143 143 143 144 144 144 145 145 145 146 146 146 146 147 147 147 147 147 148 148 147 147 147 147 147 147 146 146 146 146 145 145 145 145 145 144 144 144 144 144 143 143 143 143 142 142 142 143 143 144 146 148 151 154 158 162 167 172 176 180 183 185 187 188 189 190 190 189 189 187 186 183 180 177 173 168 163 159 154 150 147 144 143 141 141 140 140 139 139 139 139 139 139 139 139 139 139 139 139 139 139 139 140 140 140 140 140 141 141 141 141 142 142 142 142 143 143 143 143 144 144 145 145 145 146 146 147 147 148 148 149 149 150 150 151 152 152 153 154 154 155 156 156 157 157 158 158 159 159 160 160 160 160 161 161 161 161 160 160 160 159 159 158 158 157 156 156 155 154 153 152 151 150 149 148 147 147 146 145 144 144 143 143 142 142 141 141 140 140 140 140 139 139 139 139 139 139 139 139 139 139 139 139 139 139 139 139 139 140 140 140 140 140 140 140 140 140 140 140 140 140 140 140 140 140 140 140 140 140 140 140 140 140 140 140 140 140 140 140 140 140 140 140 140 140 140 140 140 140 140 140 140 140 140 140 140 140 140 140 140 140 140 140 140 140 140 140 140 141 141 141 141 141 141 141 141 141 141 141 141 142 142 142 142 142 142 142 142 142 142 142 142 142 142 142 142 143 143 143 143 143 143 143 143 143 143 143 143 143 143 143 143 143 143 143 144 144 144 144 144 145 145 145 145 146 146 146 147 147 147 147 148 148 148 148 148 148 148 148 148 148 147 147 147 147 146 146 146 145 145 145 145 145 144 144 144 144 143 143 143 143 142 142 142 143 143 144 146 148 151 155 160 164 169 174 178 182 185 187 188 190 190 191 191 191 190 189 188 185 182 178 174 169 164 159 154 150 147 145 143 142 141 140 140 139 139 139 139 138 138 138 138 138 138 138 138 138 138 139 139 139 139 139 139 140 140 140 140 140 140 141 141 141 141 142 142 142 142 143 143 143 144 144 144 145 145 146 146 147 147 148 148 149 150 150 151 152 152 153 153 154 154 155 155 156 156 157 157 157 158 158 158 158 158 158 158 157 157 157 156 156 155 155 154 153 152 152 151 150 149 148 147 146 145 144 144 143 142 141 141 140 140 139 139 138 138 138 138 137 137 137 137 137 137 137 137 137 137 137 137 137 137 137 137 138 138 138 138 138 138 138 138 138 139 139 139 139 139 139 139 139 139 139 139 139 139 139 139 139 139 139 139 139 139 139 139 139 139 139 139 139 139 139 139 139 139 139 139 139 139 139 139 139 139 139 139 139 139 139 139 139 139 139 139 139 139 139 140 140 140 140 140 140 140 140 140 140 140 140 140 140 140 140 140 140 141 141 141 141 141 141 141 142 142 142 142 142 142 142 143 143 143 143 143 144 144 144 144 145 145 145 146 146 147 147 148 148 148 149 149 149 150 150 150 150 150 150 150 150 150 150 150 150 149 149 149 149 148 148 148 148 148 147 147 147 147 146 146 146 145 145 145 145 145 145 146 147 148 150 153 156 161 165 170 175 180 185 189 192 194 196 197 198 198 198 198 197 195 193 190 186 182 177 171 166 161 156 151 148 145 143 142 141 140 140 139 139 138 138 138 138 137 137 137 137 137 137 137 137 138 138 138 138 138 138 138 139 139 139 139 139 139 140 140 140 140 140 141 141 141 141 142 142 142 142 143 143 144 144 144 145 145 146 146 147 148 148 149 149 150 150 151 151 152 152 152 153 153 153 154 154 154 154 154 154 154 153 153 152 152 151 151 150 149 148 147 146 145 144 143 142 141 140 139 138 137 136 136 135 134 134 133 133 132 132 132 131 131 131 130 130 130 130 130 130 130 130 130 130 130 130 130 131 131 131 131 131 131 131 131 132 132 132 132 132 132 132 133 133 133 133 133 133 134 134 134 134 134 134 134 134 134 135 135 135 135 135 135 135 135 135 135 134 134 134 134 134 134 134 134 134 134 134 134 134 134 135 135 135 135 135 135 135 135 135 136 136 136 136 136 136 136 136 136 136 136 136 137 137 137 137 137 137 137 137 137 137 137 137 137 137 137 137 137 137 137 137 138 138 138 138 138 138 138 138 138 138 138 139 139 139 139 139 140 140 141 141 141 142 142 142 142 143 143 143 144 144 144 144 144 144 144 144 144 144 143 143 143 143 143 142 142 142 142 141 141 141 141 141 140 140 140 139 139 139 139 139 140 141 142 144 147 151 155 159 164 169 174 179 184 188 191 194 196 197 198 198 198 198 197 195 192 189 185 180 175 170 164 159 154 150 147 144 142 141 140 139 138 138 137 137 137 137 137 136 137 137 137 137 137 137 138 138 138 138 139 139 139 139 140 140 140 141 141 141 142 142 142 143 143 143 143 144 144 144 145 145 145 146 146 146 147 147 148 148 148 149 149 150 151 151 152 152 153 153 154 154 154 155 155 156 156 156 156 156 156 156 156 156 156 156 155 155 154 154 153 153 152 151 151 150 149 148 148 147 146 145 145 144 143 142 142 141 141 140 140 140 140 139 139 139 139 139 139 139 139 139 139 139 139 139 139 139 139 139 139 139 139 139 139 139 138 138 138 138 138 138 138 137 137 137 137 137 137 137 137 137 137 137 137 137 137 137 137 138 138 138 138 138 138 139 139 139 139 139 139 139 139 140 140 140 140 140 141 141 141 141 141 141 141 141 142 142 142 142 142 142 142 142 142 142 142 142 142 142 142 142 142 142 142 143 143 143 143 143 143 143 143 143 143 143 143 143 143 143 143 143 143 143 143 143 143 143 143 143 143 144 144 144 144 144 144 144 144 145 145 145 145 145 146 146 146 146 147 147 147 148 148 148 149 149 149 150 150 150 151 151 151 151 151 151 151 151 151 150 150 150 149 149 149 148 148 148 148 147 147 147 147 147 146 146 146 146 146 146 146 146 147 148 149 151 154 157 161 166 171 176 181 185 189 193 195 197 198 199 199 199 199 198 197 195 192 188 184 180 174 169 164 159 155 152 149 148 146 146 145 145 144 144 144 144 144 144 144 144 144 144 144 144 144 144 145 145 145 145 145 146 146 146 146 147 147 147 147 148 148 148 149 149 149 150 150 151 151 152 153 153 154 154 155 156 157 157 158 159 160 160 161 162 163 163 164 165 166 166 167 167 168 168 169 169 169 170 170 170 170 170 170 170 169 169 168 168 167 166 166 165 164 163 162 161 160 159 158 157 156 155 154 153 152 151 150 150 149 148 148 147 147 146 146 146 146 145 145 145 145 145 145 145 145 145 145 145 145 145 145 145 145 145 145 145 145 145 145 145 145 145 145 145 145 145 145 145 145 145 145 145 145 145 145 144 144 144 144 144 144 144 144 144 144 144 143 143 143 143 143 143 143 143 143 143 143 143 143 143 142 142 142 142 142 142 142 142 142 142 142 142 142 142 142 142 142 142 142 142 142 142 142 142 142 142 142 142 142 142 142 142 142 142 142 142 142 142 142 142 142 142 142 142 142 142 142 142 142 142 142 141 142 142 142 142 142 142 143 143 143 143 144 144 144 145 145 145 145 146 146 146 146 146 146 146 146 146 145 145 145 145 144 144 144 144 143 143 143 143 142 142 142 142 141 141 141 141 140 141 141 142 143 145 148 151 155 160 165 170 176 181 186 191 194 197 199 201 202 203 203 202 201 199 196 193 189 184 179 173 167 162 156 151 147 144 142 141 139 138 137 137 136 136 136 135 135 135 135 135 135 135 135 136 136 136 136 136 136 137 137 137 137 137 138 138 138 138 139 139 139 139 140 140 140 141 141 141 142 142 142 143 143 144 144 144 145 145 146 146 147 147 148 148 149 150 150 151 151 152 152 153 153 154 154 154 155 155 155 155 155 155 155 155 154 154 154 153 153 152 152 151 150 149 149 148 147 146 146 145 144 143 143 142 142 141 141 140 140 139 139 139 139 138 138 138 138 137 137 137 137 137 137 137 137 137 137 137 137 138 138 138 138 138 138 138 138 138 139 139 139 139 139 139 139 139 139 139 139 139 139 139 140 140 140 140 140 140 140 140 140 140 140 140 140 140 140 140 140 140 140 140 140 140 140 140 140 140 140 140 140 140 140 140 140 140 141 141 141 141 141 141 141 141 142 142 142 142 142 142 142 143 143 143 143 143 143 143 144 144 144 144 144 144 144 144 144 144 145 145 145 144 144 144 144 144 144 144 144 144 144 144 144 144 144 145 145 145 145 146 146 146 147 147 147 148 148 148 148 148 149 149 149 149 149 149 148 148 148 148 148 148 148 147 147 147 147 147 147 146 146 146 146 146 146 145 145 145 145 145 145 146 148 150 152 156 160 164 169 175 180 186 191 195 199 201 203 205 206 206 206 206 205 203 200 196 192 188 182 177 171 165 160 155 151 149 146 145 144 143 142 141 141 140 140 140 140 140 140 140 140 140 140 140 140 140 141 141 141 141 141 142 142 142 142 142 143 143 143 143 144 144 144 145 145 145 146 146 146 147 147 148 148 148 149 149 150 150 151 151 152 152 153 153 154 154 155 155 156 156 157 157 157 158 158 158 158 158 158 158 158 158 158 158 157 157 157 156 156 155 154 154 153 152 151 151 150 149 149 148 147 146 146 145 145 144 144 143 143 142 142 142 141 141 141 141 141 141 140 140 140 140 140 141 141 141 141 141 141 141 141 141 141 141 141 141 142 142 142 142 142 142 142 142 142 142 142 142 142 142 142 142 142 142 142 142 142 142 142 142 142 142 142 142 142 142 142 142 142 142 142 142 142 142 142 143 143 143 143 143 143 143 143 143 143 143 143 143 143 143 144 144 144 144 144 144 144 144 144 144 144 144 144 144 144 144 144 144 144 144 144 144 144 144 144 144 145 145 145 145 145 145 145 145 145 145 145 145 145 145 145 145 145 145 145 145 145 145 145 145 145 145 145 146 146 146 146 146 147 147 147 147 148 148 148 148 149 149 149 149 149 149 149 149 149 149 149 149 149 148 148 148 148 147 147 147 147 147 146 146 146 146 146 146 146 145 145 145 145 145 145 146 147 148 150 153 156 160 165 170 175 180 185 189 193 195 198 199 200 201 201 201 200 198 196 193 190 186 181 176 171 165 160 156 152 149 147 145 144 143 143 142 142 142 141 141 141 141 141 141 141 141 141 141 141 141 142 142 142 142 143 143 143 143 143 144 144 144 144 145 145 145 145 145 146 146 146 146 147 147 148 148 148 149 149 150 150 150 151 151 152 152 153 153 154 154 155 155 156 156 156 157 157 157 157 158 158 158 158 158 158 157 157 157 157 156 156 156 155 155 154 154 153 153 152 152 152 151 151 150 150 149 149 149 148 148 148 147 147 147 147 146 146 146 146 145 145 145 145 145 145 145 145 145 145 145 145 144 144 144 144 144 144 144 144 144 144 144 144 144 144 144 144 143 143 143 143 143 143 143 143 143 143 142 142 142 142 142 142 142 142 141 141 141 141 141 141 141 141 141 141 141 141 141 141 141 141 141 141 140 140 140 140 140 140 140 140 141 141 141 141 141 141 141 141 141 141 141 141 141 141 142 142 142 142 142 142 142 142 142 142 142 142 142 142 142 142 142 142 142 142 142 142 142 142 142 141 141 141 141 141 141 141 141 141 141 141 141 141 141 141 141 141 141 141 141 142 142 142 142 143 143 143 144 144 144 144 145 145 145 145 145 145 145 145 145 145 144 144 144 144 143 143 143 142 142 142 142 141 141 141 141 141 141 140 140 140 140 140 140 141 142 144 147 150 154 158 163 168 173 177 181 184 187 188 189 190 190 190 190 189 187 185 182 179 175 170 165 160 155 150 146 143 140 138 137 136 136 136 136 136 135 135 135 135 135 135 135 135 136 136 136 136 136 137 137 137 137 138 138 138 138 139 139 139 140 140 140 141 141 141 142 142 143 143 143 144 144 145 145 146 147 147 148 148 149 149 150 151 151 152 153 153 154 154 155 156 156 157 157 157 158 158 158 158 159 159 159 159 158 158 158 158 157 157 156 155 155 154 153 152 151 150 149 148 147 146 145 144 143 143 142 141 140 139 139 138 138 137 137 137 136 136 136 136 136 136 136 136 136 136 136 136 136 136 136 136 136 136 136 136 136 136 136 136 136 136 136 136 136 136 136 136 136 136 136 136 136 136 136 137 136 136 136 136 136 136 136 136 136 136 136 136 136 136 136 136 136 136 136 136 136 136 136 136 136 136 136 136 136 136 136 136 136 136 136 136 136 136 136 136 136 136 136 136 136 136 136 136 136 136 136 136 136 137 137 137 137 137 137 137 137 137 137 137 138 138 138 138 138 138 138 138 138 138 139 139 139 139 140 140 140 141 141 141 142 142 142 143 143 143 143 144 144 144 144 144 144 144 144 143 143 143 143 143 142 142 142 142 142 142 141 141 141 141 141 141 141 140 140 140 140 140 140 141 143 144 147 150 154 159 164 169 174 180 185 189 192 195 197 198 199 199 199 199 198 196 193 190 186 181 176 171 165 159 154 150 146 143 142 140 139 138 138 137 137 137 136 136 136 136 136 136 136 136 136 137 137 137 137 137 138 138 138 138 139 139 139 139 140 140 140 141 141 141 142 142 142 143 143 144 144 144 145 145 146 146 147 147 148 148 149 149 150 151 151 152 152 153 153 154 154 155 155 156 156 157 157 157 157 157 158 158 158 157 157 157 156 156 156 155 154 154 153 153 152 151 150 150 149 148 147 146 146 145 144 143 143 142 142 141 141 140 140 140 139 139 139 139 138 138 138 138 138 138 138 138 139 139 139 139 139 139 139 139 140 140 140 140 140 140 140 140 140 140 140 140 141 141 140 140 140 140 140 140 140 140 140 140 140 140 140 140 140 140 140 140 140 140 140 140 140 140 140 140 140 140 140 140 140 140 140 140 140 140 140 140 140 140 140 140 140 140 140 140 140 140 141 141 141 141 141 141 141 141 141 142 142 142 142 142 142 142 142 142 142 142 143 143 143 143 143 143 143 143 143 144 144 144 145 145 145 145 146 146 146 146 147 147 147 147 147 147 147 147 147 147 147 147 147 147 146 146 146 146 146 145 145 145 145 145 145 145 144 144 144 144 144 144 143 143 144 144 145 147 149 152 156 161 166 171 177 182 186 190 193 195 197 198 199 199 199 199 198 197 195 192 188 183 177 172 166 161 156 152 149 146 145 143 142 141 141 140 140 139 139 139 139 139 139 139 139 139 139 140 140 140 140 140 141 141 141 141 141 142 142 142 142 143 143 143 143 144 144 144 145 145 145 146 146 146 147 147 148 148 149 149 149 150 150 151 151 152 152 153 153 154 154 154 155 155 155 156 156 156 156 156 157 157 157 157 157 157 156 156 156 156 155 155 154 154 153 153 152 151 151 150 149 149 148 147 147 146 145 145 144 144 143 143 142 142 141 141 141 140 140 140 140 140 140 140 140 140 140 140 140 140 140 140 140 140 140 140 140 140 140 140 140 140 140 141 141 141 141 140 140 140 140 140 140 140 140 140 140 140 140 140 140 140 140 140 140 139 139 139 140 140 140 140 140 140 140 140 140 140 140 140 140 140 140 140 140 140 140 140 140 140 140 140 140 140 140 140 140 140 140 140 140 140 140 140 141 141 141 141 141 141 141 141 141 141 141 141 141 141 141 141 141 141 141 141 141 142 142 142 143 143 143 144 144 144 145 145 146 146 146 146 147 147 147 147 147 147 146 146 146 146 145 145 145 145 144 144 144 144 143 143 143 143 143 143 142 142 142 142 142 142 142 143 144 145 148 151 154 158 163 168 173 178 182 187 190 193 195 196 197 198 198 197 196 195 193 190 186 182 178 172 167 162 157 153 149 146 144 143 142 141 140 140 140 139 139 139 138 138 138 138 138 138 139 139 139 139 139 139 139 140 140 140 140 141 141 141 141 142 142 142 143 143 143 143 144 144 144 145 145 145 146 146 147 147 147 148 148 149 149 149 150 150 151 151 151 152 152 152 153 153 153 153 154 154 154 154 154 154 154 154 154 154 154 153 153 153 152 152 151 151 150 150 149 148 147 147 146 145 145 144 143 143 142 141 141 140 140 140 139 139 139 138 138 138 138 138 138 137 137 137 137 137 137 137 137 137 138 138 138 138 138 138 138 138 138 138 138 138 138 138 138 138 138 138 138 138 138 138 138 138 138 138 138 138 138 138 138 138 138 138 138 138 138 138 138 138 138 138 138 138 138 138 138 138 138 138 138 138 138 138 138 138 138 138 138 138 138 138 138 139 139 139 139 139 139 139 139 139 139 139 139 139 139 139 139 140 140 140 140 140 140 140 140 140 140 141 141 141 141 142 142 142 142 143 143 143 144 144 144 145 145 145 145 145 146 146 146 146 145 145 145 145 145 145 144 144 144 144 144 144 143 143 143 143 143 143 142 142 142 143 143 144 146 148 151 154 158 162 167 171 176 180 183 185 187 188 189 189 189 189 189 187 186 184 181 177 173 169 164 160 155 151 148 145 143 142 141 141 141 140 140 140 140 140 140 140 140 140 140 141 141 141 141 141 141 142 142 142 142 143 143 143 143 143 144 144 144 144 145 145 145 146 146 146 147 147 147 148 148 149 149 149 150 150 151 152 152 153 153 154 155 155 156 156 157 157 158 158 159 159 159 160 160 160 160 160 160 160 160 160 160 159 159 159 158 157 157 156 155 154 154 153 152 151 150 149 148 147 147 146 145 144 144 143 142 142 141 141 141 140 140 140 139 139 139 139 139 139 139 139 139 139 139 139 139 139 139 139 140 140 140 140 140 140 140 140 140 140 140 140 140 141 141 141 141 141 141 141 141 141 141 141 141 140 140 140 140 140 140 140 140 140 140 140 140 140 140 140 140 140 140 140 140 140 140 140 140 140 140 140 140 140 140 140 140 140 140 140 140 140 140 140 141 141 141 141 141 142 142 142 143 143 143 143 144 144 144 144 145 145 145 145 145 145 145 145 144 144 144 144 144 143 143 143 143 143 143 143 143 142 142 142 142 142 142 143 143 144 146 148 151 154 158 162 167 172 177 181 185 188 190 191 192 192 192 192 191 190 188 186 183 179 175 171 166 161 156 152 148 145 142 141 140 140 139 139 139 139 139 139 139 139 140 140 140 140 140 140 140 141 141 141 141 141 141 142 142 142 142 142 143 143 143 144 144 144 144 145 145 145 146 146 147 147 147 148 148 149 150 150 151 151 152 152 153 154 154 155 156 156 157 157 158 158 159 159 160 160 160 161 161 161 161 161 161 161 161 160 160 159 159 158 158 157 156 155 154 154 153 152 151 150 149 148 147 146 145 145 144 143 143 142 142 141 141 141 140 140 140 140 140 140 140 140 140 140 140 140 140 140 141 141 141 141 141 142 142 142 142 142 142 142 142 142 143 143 143 143 143 143 143 143 143 143 143 143 143 143 143 143 143 142 142 142 142 142 142 142 142 142 142 142 142 142 142 142 142 142 142 142 142 142 142 142 142 142 142 143 143 143 143 143 143 143 143 143 143 143 144 144 144 145 145 145 145 146 146 146 147 147 147 147 148 148 148 148 148 148 148 148 148 148 147 147 147 147 147 146 146 146 146 146 146 146 146 145 145 145 145 145 145 146 147 149 152 155 159 163 168 173 177 182 185 188 191 193 194 194 195 195 195 194 193 191 188 185 181 177 172 167 162 158 154 150 148 146 145 144 144 143 143 143 143 142 142 142 142 142 142 143 143 143 143 143 143 144 144 144 144 144 145 145 145 145 145 146 146 146 146 146 147 147 147 147 148 148 148 149 149 150 150 151 151 151 152 153 153 154 154 155 156 156 157 157 158 159 159 160 160 161 161 162 162 162 163 163 163 163 163 163 163 163 163 162 162 162 161 161 160 159 159 158 157 157 156 155 154 154 153 152 152 151 150 150 149 149 148 148 147 147 147 146 146 146 146 146 146 146 146 146 146 146 146 146 146 146 146 146 146 147 147 147 147 147 147 147 147 147 147 147 147 147 147 147 147 147 147 147 147 147 147 147 147 147 147 147 147 147 147 147 147 147 147 147 147 147 147 147 146 146 146 146 146 146 146 146 146 146 146 146 146 146 146 146 146 146 146 146 146 146 146 146 146 146 146 146 146 146 146 146 146 146 146 146 146 146 146 147 147 147 147 148 148 148 148 149 149 149 149 149 149 149 150 149 149 149 149 149 149 148 148 148 148 147 147 147 147 146 146 146 146 145 145 145 145 145 145 146 147 148 150 152 156 159 163 168 172 176 181 184 187 189 191 192 192 193 192 192 191 190 188 185 182 178 174 169 165 160 156 152 149 147 145 144 143 143 142 142 142 141 141 141 141 141 141 141 141 141 141 141 141 141 141 142 142 142 142 142 142 142 142 143 143 143 143 143 143 143 144 144 144 144 145 145 145 145 146 146 146 147 147 148 148 148 149 149 150 151 151 151 152 152 153 153 154 154 155 155 155 156 156 156 156 156 156 156 156 156 155 155 155 154 153 153 152 151 151 150 149 148 147 146 145 144 144 143 142 141 140 140 139 138 138 137 137 137 136 136 136 136 136 136 136 136 135 135 136 136 136 136 136 136 136 136 136 136 137 137 137 137 137 137 137 137 137 137 137 138 138 138 138 138 138 138 138 138 138 138 138 138 138 138 138 138 138 138 138 138 138 138 138 138 138 138 137 137 137 137 137 137 137 137 137 137 136 136 136 136 136 136 136 136 136 136 136 136 136 136 136 136 136 136 136 136 136 136 136 136 137 137 137 137 137 137 137 137 137 137 137 137 137 137 137 137 138 138 138 138 138 138 138 139 139 139 139 140 140 140 141 141 142 142 143 143 143 144 144 144 145 145 145 145 145 145 145 145 145 145 144 144 144 144 144 144 144 143 143 143 143 143 143 143 142 142 143 143 144 145 147 149 152 155 159 163 168 173 177 181 185 187 189 190 191 192 192 191 191 189 188 185 182 179 175 170 165 161 156 152 148 146 144 143 142 141 141 141 140 140 140 140 140 140 140 140 140 141 141 141 141 141 141 142 142 142 142 143 143 143 143 143 144 144 144 145 145 145 146 146 146 147 147 147 148 148 149 149 150 150 151 151 152 152 153 154 154 155 156 156 157 157 158 159 159 160 160 161 161 162 162 162 163 163 163 163 163 163 163 163 162 162 161 161 160 159 159 158 157 156 155 154 153 152 151 150 149 149 148 147 146 146 145 145 144 144 143 143 143 142 142 142 142 142 142 142 142 142 142 142 142 142 142 143 143 143 143 143 143 143 144 144 144 144 144 144 144 144 144 144 145 145 145 145 145 145 145 145 145 145 145 145 145 145 145 145 145 145 145 145 145 145 145 145 145 145 145 145 145 145 145 145 145 145 145 145 145 145 145 146 146 146 146 146 146 146 146 146 146 146 146 146 146 146 146 146 146 146 146 146 146 146 146 146 146 147 147 147 147 147 147 147 147 147 147 147 147 147 147 147 147 147 147 147 147 147 147 147 147 147 147 147 147 147 147 147 147 148 148 148 148 148 149 149 149 150 150 150 151 151 151 152 152 152 152 153 153 153 153 153 153 152 152 152 152 152 152 151 151 151 151 151 151 150 150 150 150 150 150 150 150 151 152 154 156 159 163 167 171 176 181 186 191 195 198 201 203 204 205 205 205 205 204 202 200 197 194 189 185 180 174 169 164 160 157 154 152 151 150 149 148 148 147 147 146 146 146 146 146 146 146 146 146 146 147 147 147 147 148 148 148 148 149 149 149 149 150 150 150 150 151 151 151 151 152 152 152 152 153 153 153 154 154 155 155 155 156 156 157 158 158 159 159 160 160 161 161 161 162 162 162 163 163 164 164 164 164 164 164 164 164 164 163 163 163 162 162 161 160 160 159 158 157 157 156 155 154 153 152 152 151 150 149 148 148 147 147 146 145 145 145 144 144 144 144 143 143 143 143 143 143 143 143 143 143 143 143 143 143 143 143 143 143 143 143 143 144 144 144 144 144 144 144 144 144 144 144 144 144 144 144 144 144 144 144 144 144 144 144 144 144 144 144 144 144 144 144 144 144 144 144 144 144 144 144 144 144 144 144 144 144 144 144 144 144 144 144 144 144 144 144 144 144 144 144 144 144 144 144 144 144 145 145 145 145 145 145 145 145 145 145 145 145 145 145 145 145 145 145 145 145 145 145 145 145 146 146 146 146 146 146 146 146 146 146 146 146 146 146 146 146 146 146 146 146 146 146 146 146 146 146 147 147 147 147 147 148 148 148 149 149 149 149 149 150 150 150 150 150 150 150 150 150 149 149 149 149 149 148 148 148 148 147 147 147 147 147 146 146 145 145 145 146 146 147 149 151 155 158 163 167 173 178 183 188 191 195 197 199 200 201 201 201 201 200 198 195 192 188 184 179 173 168 162 157 153 150 147 145 144 143 142 141 141 140 140 140 140 139 139 139 139 139 139 139 140 140 140 140 140 140 140 141 141 141 141 141 142 142 142 142 142 142 143 143 143 143 144 144 144 145 145 146 147 147 148 149 150 150 151 152 153 154 155 156 157 158 159 160 160 161 162 163 163 164 164 165 165 165 166 166 166 166 166 165 165 165 164 164 163 163 162 161 160 159 158 157 156 155 154 153 153 152 151 150 149 148 147 147 146 145 145 145 144 144 143 143 143 143 142 142 142 142 142 142 142 142 142 142 142 142 142 142 142 143 143 143 143 143 143 143 143 143 143 143 143 143 143 143 143 143 143 143 143 143 143 143 143 143 143 143 143 143 143 143 143 143 143 143 143 143 142 142 142 142 142 142 142 142 142 142 142 142 142 142 142 141 141 141 141 141 141 141 141 141 141 141 140 140 140 140 140 140 140 140 140 140 140 140 140 140 140 140 140 140 140 140 140 140 140 140 140 140 140 140 140 141 141 141 141 141 141 141 141 141 141 141 141 141 141 141 141 141 141 141 141 141 141 141 141 141 141 141 141 142 142 142 142 143 143 143 143 143 144 144 144 145 145 145 145 145 145 145 145 145 145 145 145 144 144 144 144 144 143 143 143 143 143 143 142 142 142 142 141 141 141 141 141 142 144 146 148 152 156 161 166 171 177 183 188 192 196 199 202 203 204 205 205 205 203 202 199 195 191 186 181 175 169 163 158 153 149 146 143 142 140 139 138 137 137 136 136 136 135 135 135 135 135 135 135 135 135 135 136 136 136 136 136 136 136 137 137 137 137 137 137 138 138 138 138 139 139 139 139 140 140 140 141 141 141 142 142 143 143 144 144 145 145 146 146 147 147 148 148 149 149 150 150 151 151 152 152 152 153 153 153 153 153 153 153 153 153 152 152 152 151 150 150 149 149 148 147 146 146 145 144 143 142 142 141 140 140 139 139 138 138 137 137 137 136 136 136 135 135 135 135 135 135 135 135 135 135 135 136 136 136 136 136 136 136 136 136 136 136 136 136 136 137 137 137 137 137 137 137 137 137 137 137 137 137 137 137 138 138 138 138 138 138 138 138 138 138 138 138 138 139 139 139 139 139 139 139 139 139 139 139 139 139 139 139 139 139 139 140 140 140 140 140 140 140 140 140 140 140 140 140 140 140 140 140 140 140 140 140 140 140 140 140 140 140 140 140 141 141 141 141 141 141 141 141 141 141 142 142 142 142 142 142 142 142 142 142 142 142 142 142 142 142 142 142 142 142 142 142 142 142 142 142 143 143 143 143 143 144 144 144 145 145 145 145 146 146 146 146 147 147 147 147 147 147 147 147 147 146 146 146 146 146 145 145 145 145 145 144 144 144 144 144 143 143 143 142 142 142 143 143 145 146 149 152 156 161 166 171 177 182 187 192 196 199 202 203 204 205 205 205 204 202 200 197 193 188 183 177 172 166 161 156 152 148 146 144 143 142 141 140 139 139 138 138 138 138 138 138 138 138 138 138 138 138 138 138 139 139 139 139 139 140 140 140 140 140 141 141 141 141 142 142 142 142 142 143 143 143 144 144 144 145 145 145 146 146 146 147 147 148 148 149 149 150 150 151 151 151 152 152 152 153 153 153 154 154 154 154 154 154 154 154 154 154 154 153 153 152 152 151 151 150 149 148 148 147 146 145 145 144 143 142 142 141 140 140 140 139 139 138 138 138 138 137 137 137 137 137 137 137 137 137 137 137 137 137 137 137 137 137 137 138 138 138 138 138 138 138 138 138 138 138 138 138 138 138 138 138 138 138 138 138 138 139 139 139 139 139 139 139 139 139 139 139 139 139 139 139 139 139 139 139 140 140 140 140 140 140 140 140 140 140 140 140 140 140 140 140 140 140 140 140 140 140 140 140 140 140 140 140 140 140 141 141 141 141 141 141 141 141 141 141 141 141 141 141 141 141 141 141 141 142 142 142 142 142 142 142 142 142 142 142 142 142 142 142 142 143 143 143 143 143 143 143 143 143 144 144 144 144 145 145 145 146 146 147 147 147 148 148 149 149 149 149 149 150 150 150 149 149 149 149 149 149 148 148 148 148 147 147 147 147 147 147 146 146 146 146 146 146 145 145 145 145 146 146 148 149 152 155 158 163 167 172 177 182 186 190 192 194 196 197 197 197 196 195 194 192 190 187 183 178 173 168 163 158 153 150 147 145 143 142 142 142 141 141 141 141 141 141 141 141 141 141 141 141 141 141 142 142 142 142 143 143 143 143 144 144 144 145 145 145 145 146 146 146 147 147 148 148 148 149 149 150 150 150 151 151 152 152 153 153 154 155 155 156 156 157 157 158 159 159 160 160 160 161 161 161 162 162 162 162 162 162 162 162 162 161 161 160 160 159 158 158 157 156 155 154 153 152 151 150 149 148 148 147 146 145 144 143 142 142 141 141 140 139 139 139 138 138 138 138 138 137 137 137 137 137 138 138 138 138 138 138 138 138 138 138 138 138 138 139 139 139 139 139 139 139 139 139 139 139 139 139 139 139 139 139 139 139 139 139 139 139 139 139 139 139 139 139 139 139 138 138 138 139 139 139 139 139 139 139 139 138 138 138 138 138 138 138 138 138 138 138 138 138 138 138 138 138 137 137 137 137 137 137 137 137 137 137 137 137 136 136 136 137 137 137 137 137 137 137 137 137 137 137 137 137 137 137 137 137 137 137 138 138 138 138 138 138 138 139 139 139 139 140 140 140 141 141 141 141 142 142 142 142 143 143 143 143 143 143 143 143 142 142 142 142 142 142 141 141 141 141 141 141 141 140 140 140 140 139 139 139 140 140 141 142 145 147 151 155 160 165 170 176 181 186 190 193 196 198 199 199 200 200 199 198 196 193 189 185 180 175 170 164 159 154 149 146 144 142 141 140 139 138 138 137 137 137 137 137 137 137 137 137 137 137 137 137 137 138 138 138 138 138 139 139 139 139 140 140 140 140 141 141 141 142 142 142 143 143 143 144 144 145 145 146 146 146 147 147 148 149 149 150 150 151 152 152 153 154 154 155 155 156 157 157 157 158 158 159 159 159 159 159 159 159 159 158 158 158 157 157 156 155 155 154 153 152 152 151 150 149 148 147 147 146 145 145 144 144 143 143 142 142 141 141 141 141 141 141 141 141 140 140 140 141 141 141 141 141 141 141 141 141 141 142 142 142 142 142 142 142 142 142 142 142 143 143 143 143 143 143 143 143 143 143 143 143 143 143 143 143 143 143 143 143 143 143 143 143 143 143 143 143 143 143 143 143 143 143 143 143 143 143 143 143 143 143 143 143 143 143 143 143 143 143 143 143 143 143 143 143 143 143 143 143 143 144 144 144 144 144 144 144 144 144 144 144 144 144 144 144 145 145 145 145 145 145 145 145 145 145 145 145 145 146 146 146 146 147 147 147 147 148 148 148 149 149 149 149 150 150 150 150 150 150 150 150 150 150 150 149 149 149 149 149 149 148 148 148 148 148 147 147 147 147 147 146 146 146 146 146 146 147 149 151 153 157 161 166 171 177 183 188 193 197 201 204 206 207 208 209 209 208 207 205 202 199 195 190 184 178 172 167 161 157 153 150 148 146 145 144 143 143 142 141 141 141 141 140 140 140 140 140 140 141 141 141 141 141 141 142 142 142 142 142 143 143 143 143 143 144 144 144 145 145 145 145 146 146 147 147 147 148 148 148 149 149 150 150 151 151 152 152 153 153 154 154 155 155 156 156 157 157 157 158 158 158 158 159 159 159 159 158 158 158 158 158 157 157 156 156 155 155 154 154 153 152 151 151 150 150 149 148 147 147 146 146 145 145 144 144 144 143 143 143 143 143 142 142 142 142 142 142 142 142 142 142 142 142 143 143 143 143 143 143 143 143 143 143 143 143 143 143 143 143 143 143 143 143 143 143 143 143 143 143 143 143 143 143 143 143 143 143 143 143 143 143 143 143 143 143 143 143 143 143 143 143 143 143 143 143 143 143 143 143 143 143 143 143 143 144 144 144 144 144 144 144 144 144 144 144 144 144 144 144 144 144 144 144 144 144 144 144 144 144 144 144 144 145 145 145 145 145 145 145 145 145 145 145 145 145 145 145 145 145 145 146 146 146 146 146 147 147 147 148 148 148 148 149 149 149 149 150 150 150 150 150 150 149 149 149 149 149 148 148 148 148 147 147 147 147 146 146 146 146 145 145 145 144 144 144 144 144 145 146 148 151 154 158 163 168 173 179 184 189 194 197 200 202 204 205 205 205 205 204 202 199 196 192 187 182 176 170 165 159 155 151 148 146 144 143 142 141 140 140 139 139 139 138 138 138 138 138 138 138 138 139 139 139 139 139 139 140 140 140 140 140 141 141 141 141 142 142 142 143 143 143 143 144 144 145 145 145 146 146 146 147 147 148 148 148 149 149 150 150 150 151 151 152 152 152 153 153 154 154 154 154 154 155 155 155 155 155 155 155 155 154 154 154 154 153 153 152 152 151 150 150 149 148 148 147 146 146 145 144 144 143 143 142 142 141 141 140 140 140 140 140 139 139 139 139 139 139 139 139 139 139 140 140 140 140 140 140 140 140 140 140 140 140 140 140 140 140 140 140 140 140 140 140 140 140 140 140 140 140 140 140 140 140 140 139 139 139 139 139 139 139 139 139 139 139 139 139 139 139 139 139 139 139 139 139 139 139 139 139 139 139 139 139 139 139 139 139 139 140 140 140 140 140 140 140 140 140 140 140 140 140 140 140 140 140 140 140 140 140 140 140 140 140 140 140 141 141 141 141 141 141 141 141 141 141 141 141 141 141 141 141 141 141 141 142 142 142 142 142 143 143 143 144 144 144 145 145 145 146 146 146 146 146 146 146 146 146 146 146 146 146 145 145 145 145 144 144 144 144 143 143 143 143 143 142 142 142 142 142 142 143 144 146 148 151 155 160 165 170 175 181 186 190 193 196 198 199 200 200 200 200 198 197 194 191 187 183 178 172 166 161 156 151 148 145 143 141 140 140 139 139 138 138 138 137 137 137 137 137 137 137 137 137 138 138 138 138 138 139 139 139 139 139 139 140 140 140 140 140 141 141 141 142 142 142 143 143 143 144 144 145 145 146 146 147 147 147 148 148 149 149 150 150 151 151 152 152 152 153 153 153 154 154 154 154 154 154 154 154 154 154 154 154 153 153 153 152 152 151 151 150 149 149 148 148 147 146 146 145 144 144 143 143 142 141 141 141 140 140 139 139 139 138 138 138 138 138 138 138 137 137 137 137 137 137 137 137 137 138 138 138 138 138 138 138 138 138 138 138 138 138 138 138 138 138 138 137 137 137 137 137 137 137 137 137 137 137 137 138 138 138 138 138 138 138 138 138 138 138 138 138 138 138 138 138 138 138 137 137 137 137 137 137 137 136 136 136 136 136 136 136 136 136 136 136 136 136 136 136 136 136 137 137 137 137 137 137 137 137 137 138 138 138 138 138 138 138 138 138 138 139 139 139 139 139 139 139 139 139 139 139 139 139 139 140 140 140 140 140 140 141 141 141 141 142 142 142 143 143 143 144 144 144 144 144 145 145 145 145 145 144 144 144 144 144 143 143 143 143 143 142 142 142 142 142 141 141 141 141 141 141 141 141 142 143 145 148 151 155 159 164 169 174 179 183 187 190 192 193 194 195 195 195 194 193 191 189 185 181 177 172 167 161 156 152 148 144 142 140 139 138 138 137 137 136 136 136 135 135 135 135 135 135 135 136 136 136 136 136 137 137 137 137 138 138 138 138 139 139 139 139 140 140 140 141 141 141 141 142 142 142 143 143 143 144 144 145 145 145 146 146 147 147 147 148 148 149 149 149 150 150 150 151 151 151 151 152 152 152 152 152 152 152 152 152 151 151 151 151 150 150 149 149 148 148 147 147 146 146 145 144 144 143 142 142 141 141 140 140 139 139 139 139 138 138 138 138 138 138 138 137 137 137 137 138 138 138 138 138 138 138 138 138 138 138 138 139 139 139 139 139 139 139 139 139 139 139 140 140 140 140 139 139 139 139 139 139 139 139 140 140 140 140 140 140 140 140 140 140 139 139 140 140 140 140 140 140 140 140 140 140 140 140 140 140 140 140 140 140 140 140 140 140 140 140 140 140 140 140 140 140 141 141 141 141 141 141 141 142 142 142 142 142 142 142 142 142 142 142 143 143 143 143 143 143 143 143 143 143 143 143 143 143 143 143 143 144 144 144 144 145 145 145 145 146 146 146 147 147 147 147 147 148 148 148 148 148 148 148 148 148 148 148 147 147 147 147 146 146 146 146 146 146 145 145 145 144 144 144 144 145 145 146 148 150 153 157 161 165 170 175 180 184 187 190 192 193 194 194 194 194 193 192 190 188 185 181 177 172 168 163 158 154 150 148 146 144 144 143 143 142 142 142 142 142 142 142 142 142 142 142 142 142 142 142 142 142 143 143 143 143 143 144 144 144 144 144 144 145 145 145 145 146 146 146 146 147 147 148 148 148 149 149 150 150 151 151 152 152 153 153 154 154 155 155 156 156 156 157 157 158 158 158 158 159 159 159 159 159 159 159 158 158 158 157 157 157 156 156 155 154 154 153 152 152 151 150 149 149 148 147 146 146 145 145 144 144 143 143 143 143 142 142 142 142 141 141 141 141 141 141 141 141 141 141 141 141 141 141 141 141 141 141 141 141 141 141 141 141 141 141 141 141 141 141 141 141 141 141 141 141 141 141 141 141 141 141 141 141 140 140 140 140 140 140 140 140 140 140 139 139 139 139 139 139 139 139 139 139 139 140 140 140 140 140 140 140 140 140 140 140 140 140 140 140 140 140 140 140 140 140 140 140 140 140 140 140 140 140 140 140 140 140 140 140 141 141 141 141 141 141 142 142 142 143 143 143 144 144 144 145 145 145 145 145 145 146 146 146 146 145 145 145 145 145 144 144 144 144 143 143 143 143 143 143 143 143 142 142 142 142 142 141 141 142 142 143 144 146 148 151 155 159 163 168 173 177 182 185 187 188 189 190 190 190 190 189 188 186 184 181 177 173 168 163 158 153 149 146 144 142 141 141 140 140 139 139 139 139 139 139 139 139 139 139 139 139 139 139 139 139 139 140 140 140 140 141 141 141 141 141 142 142 142 143 143 143 143 144 144 144 145 145 146 146 146 147 147 147 148 148 149 149 150 150 151 151 152 152 152 153 153 154 154 154 155 155 155 155 155 156 156 155 155 155 155 155 155 154 154 153 153 152 152 151 151 150 149 149 148 148 147 146 146 145 144 144 143 143 142 142 141 141 141 140 140 140 139 139 139 139 139 139 139 139 139 139 139 139 139 139 139 139 139 139 139 139 139 139 139 139 139 139 139 139 139 139 139 139 139 139 138 138 138 138 138 139 139 139 139 139 139 139 139 139 140 140 140 140 140 140 140 140 140 140 140 140 140 140 140 140 140 140 140 140 140 140 140 140 140 140 141 141 141 141 141 141 141 141 141 141 141 140 140 140 140 140 140 140 140 140 140 140 141 141 141 141 141 142 142 142 143 143 144 144 144 144 145 145 145 145 145 145 145 145 144 144 144 144 144 144 144 143 143 143 143 143 143 143 143 143 142 142 143 143 144 145 147 149 152 156 160 164 169 173 178 181 185 187 189 190 191 191 192 191 190 189 187 185 182 178 174 170 165 160 156 151 148 145 143 142 141 140 140 139 139 139 139 139 139 138 138 138 138 139 139 139 139 139 139 140 140 140 140 141 141 141 141 141 142 142 142 142 143 143 143 143 144 144 144 145 145 145 145 146 146 147 147 148 148 149 149 150 150 151 151 152 152 153 153 154 154 155 155 156 156 156 156 157 157 157 157 157 157 157 157 156 156 156 155 155 155 154 154 153 152 152 151 150 150 149 148 148 147 146 146 145 144 144 143 143 142 142 142 142 141 141 141 141 141 141 141 141 141 141 141 141 141 141 141 141 141 141 141 141 141 141 141 141 141 142 142 142 142 142 142 142 142 142 142 142 143 143 143 143 143 143 143 143 143 143 143 143 143 143 143 143 143 143 143 143 143 143 143 143 143 144 144 144 144 144 144 144 144 144 144 144 144 144 145 145 145 145 145 145 145 145 145 145 145 145 146 146 146 147 147 147 148 148 148 149 149 150 150 150 150 150 150 150 150 150 150 150 150 150 149 149 149 149 149 148 148 148 147 147 147 147 147 147 146 146 147 147 148 149 151 153 156 160 163 168 172 177 181 185 188 191 192 194 194 195 195 195 194 193 191 189 186 183 179 174 169 165 160 156 153 150 149 147 146 146 145 145 145 145 145 144 144 144 144 144 144 144 145 145 145 145 145 145 146 146 146 146 146 147 147 147 147 148 148 148 148 149 149 149 150 150 150 150 151 151 151 151 152 152 153 153 153 154 154 155 155 156 156 156 157 157 158 158 158 159 159 160 160 160 160 160 160 160 160 160 160 160 160 160 159 159 158 158 157 157 156 155 155 154 153 153 152 151 150 150 149 148 148 147 146 146 145 145 145 145 145 144 144 144 144 144 144 144 144 144 144 144 144 144 144 144 145 145 145 145 145 145 145 145 145 145 145 145 145 145 145 145 145 145 145 145 145 145 145 145 145 145 145 145 145 145 145 145 145 145 145 144 144 144 144 144 144 144 144 144 144 144 144 144 144 144 144 145 145 145 145 145 145 144 144 144 144 144 144 144 145 145 145 145 145 145 145 146 146 146 147 147 148 148 148 149 149 150 150 150 150 150 150 151 151 151 151 150 150 150 150 149 149 149 148 148 148 148 147 147 147 147 147 147 146 146 146 146 147 147 148 149 151 153 156 160 164 168 172 176 180 184 186 188 190 191 191 191 191 191 190 189 187 185 182 179 175 170 166 162 157 154 151 149 147 146 146 145 145 144 144 144 144 143 143 143 143 143 143 143 143 143 143 144 144 144 144 144 145 145 145 145 145 146 146 146 146 146 147 147 147 148 148 148 148 149 149 149 150 150 150 151 151 152 152 153 153 154 154 155 155 155 156 156 157 157 157 158 158 158 159 159 159 159 159 159 159 159 158 158 158 157 157 157 156 156 155 155 154 153 152 152 151 150 150 149 148 147 147 146 145 145 144 144 143 143 142 142 142 141 141 141 141 141 141 141 141 141 141 141 141 140 140 140 140 141 141 141 141 141 141 141 141 141 141 141 141 140 140 140 140 141 141 141 141 141 141 140 140 140 141 141 141 141 141 141 141 141 141 140 140 140 140 140 140 140 140 140 140 140 140 140 140 140 140 140 141 141 141 141 141 141 141 141 141 141 141 142 142 142 142 142 143 143 143 144 144 144 145 145 145 145 145 146 146 146 146 146 146 146 146 146 146 145 145 145 145 145 145 145 144 144 144 144 144 144 144 144 144 144 145 145 146 148 150 152 156 159 164 168 172 177 181 184 186 188 189 190 190 190 190 189 188 187 184 182 178 174 170 165 161 156 152 149 146 144 143 142 141 141 141 140 140 140 140 140 140 140 140 140 141 141 141 141 141 141 141 142 142 142 143 143 143 144 144 144 144 145 145 145 146 146 147 147 147 148 148 149 149 150 150 151 151 152 152 153 154 154 155 155 156 157 157 158 158 159 160 160 161 161 162 162 162 163 163 163 163 163 164 163 163 163 163 162 162 161 161 160 159 159 158 157 156 155 154 154 153 152 151 150 149 149 148 148 147 146 146 146 145 145 145 145 145 144 144 144 144 144 144 144 145 145 145 145 145 145 145 145 145 145 146 146 146 146 146 146 146 146 146 146 146 146 146 146 146 146 146 146 146 146 146 146 146 146 146 146 146 146 146 146 146 146 146 146 146 146 146 146 146 146 146 146 146 146 146 146 146 146 145 145 145 145 145 145 145 145 145 145 146 146 146 147 147 147 147 148 148 148 148 149 149 149 149 149 149 149 149 149 149 149 148 148 148 148 147 147 147 147 146 146 146 146 145 145 145 145 144 144 145 146 147 149 151 155 158 163 168 173 178 183 188 192 195 198 199 200 201 201 201 200 199 197 194 191 187 182 177 171 165 160 155 151 147 145 143 141 141 140 139 139 138 138 138 137 137 137 137 137 137 137 137 138 138 138 138 138 138 138 139 139 139 139 140 140 140 140 140 141 141 141 142 142 142 143 143 144 144 144 145 145 146 146 147 147 148 148 149 150 150 151 151 152 152 153 153 153 154 154 155 155 155 155 156 156 156 156 156 156 155 155 155 155 154 154 153 152 152 151 150 150 149 148 147 146 146 145 144 143 143 142 141 141 140 140 139 139 138 138 137 137 137 137 137 137 137 136 136 136 137 137 137 137 137 137 137 137 137 137 137 137 137 137 137 138 138 138 138 138 138 138 138 138 138 138 138 138 138 138 138 138 138 138 138 138 138 138 137 137 137 137 137 137 137 137 137 137 137 137 137 137 137 137 137 137 137 137 138 138 138 138 139 139 139 140 140 140 140 141 141 141 141 141 142 142 142 142 142 142 141 141 141 141 141 141 141 141 141 141 141 140 140 140 140 140 139 139 139 139 140 141 142 144 146 150 154 158 163 169 174 180 185 189 193 196 198 200 201 201 201 201 200 198 196 192 188 183 178 172 167 161 156 151 147 144 142 141 140 139 138 138 137 137 136 136 136 136 136 136 136 137 137 137 137 137 138 138 138 138 139 139 139 140 140 140 140 141 141 141 142 142 143 143 143 144 144 144 145 145 145 146 146 146 147 147 148 148 149 149 150 150 151 151 152 152 153 153 154 155 155 156 156 157 157 158 158 158 159 159 159 159 159 159 159 159 159 158 158 157 157 156 156 155 154 153 153 152 151 151 150 149 149 148 148 147 147 147 146 146 145 145 145 145 145 145 144 144 144 144 144 144 144 144 144 144 144 144 144 144 144 144 144 144 144 144 144 143 143 143 143 143 143 143 143 143 143 143 143 143 143 143 143 143 143 143 143 143 142 142 142 142 142 142 142 142 142 142 142 142 142 142 142 142 142 142 142 142 142 142 142 142 142 142 141 141 141 141 142 142 142 142 142 142 143 143 143 144 144 144 144 145 145 145 145 145 146 146 146 146 146 145 145 145 145 145 145 144 144 144 144 144 144 143 143 143 143 142 142 142 142 142 143 144 146 149 152 156 160 165 170 176 181 186 190 193 196 198 199 200 200 200 200 198 197 194 191 187 182 177 172 166 161 155 151 147 145 143 141 140 139 139 138 138 137 137 137 137 136 136 136 136 136 136 136 137 137 137 137 137 137 137 137 138 138 138 138 138 138 139 139 139 140 140 140 141 141 141 142 142 142 143 143 143 144 144 145 145 145 146 146 147 147 147 148 148 149 149 149 150 150 150 151 151 151 151 152 152 152 152 152 152 151 151 151 150 150 150 149 149 148 148 147 146 146 145 144 144 143 143 142 141 141 140 140 140 139 139 138 138 138 137 137 137 137 137 137 137 137 137 137 137 137 137 137 137 137 137 138 138 138 138 138 138 138 138 138 138 138 138 138 138 138 138 138 138 138 139 139 139 139 139 139 139 139 139 139 139 139 139 139 139 139 139 139 139 139 139 139 139 138 138 138 138 138 138 138 138 138 138 138 138 138 138 138 138 138 138 138 138 138 138 138 138 139 139 139 139 139 139 139 139 139 139 139 139 139 139 140 140 140 140 140 140 140 140 140 141 141 141 141 142 142 142 143 143 143 143 144 144 144 144 144 144 144 144 144 144 144 144 144 144 144 143 143 143 143 143 143 143 143 143 142 142 142 142 142 142 143 143 144 146 148 151 154 158 162 167 172 177 182 187 190 193 195 196 197 198 198 197 196 195 193 190 187 182 178 173 167 162 157 152 149 146 144 142 141 140 140 139 139 138 138 138 138 138 138 138 138 138 138 138 138 138 138 138 138 139 139 139 139 139 140 140 140 140 141 141 141 141 142 142 142 143 143 143 144 144 144 145 145 146 146 146 147 147 148 148 148 149 149 149 150 150 151 151 151 152 152 152 152 153 153 153 153 153 153 153 153 153 153 153 152 152 152 151 151 151 150 150 149 149 148 147 147 146 146 145 144 144 143 143 142 142 142 141 141 141 140 140 140 140 140 140 140 140 139 139 139 139 139 139 139 139 139 139 139 140 140 140 140 140 140 140 140 140 140 140 140 140 140 140 140 140 140 140 140 140 140 140 140 139 139 139 139 139 139 139 140 140 140 140 140 140 140 140 140 140 140 140 140 140 140 140 140 140 140 140 140 140 140 140 140 140 140 140 140 140 140 140 140 140 140 140 140 140 140 140 140 140 140 140 140 140 140 140 140 140 140 140 140 140 140 140 140 140 141 141 141 141 141 141 141 141 141 141 141 141 141 141 141 141 141 141 141 141 141 142 142 142 142 142 143 143 143 144 144 144 145 145 145 146 146 146 146 146 146 147 147 146 146 146 146 146 145 145 145 145 144 144 144 144 144 144 143 143 143 143 143 143 144 145 147 149 152 156 160 164 169 174 178 182 186 189 191 192 193 194 194 194 193 192 191 188 185 182 178 173 168 163 159 154 150 147 145 144 142 142 141 141 141 140 140 140 140 139 139 139 139 139 139 140 140 140 140 140 140 140 140 141 141 141 141 141 141 142 142 142 142 143 143 143 143 144 144 144 145 145 145 146 146 146 147 147 148 148 149 149 150 150 151 151 152 152 153 153 154 154 155 155 155 155 156 156 156 156 156 156 156 156 156 156 156 156 156 155 155 155 154 154 154 153 153 152 152 151 151 150 150 149 149 148 148 147 147 146 146 145 145 145 144 144 144 144 143 143 143 143 143 143 143 143 143 143 143 143 143 143 143 143 143 143 143 143 143 143 143 143 143 143 143 143 143 143 143 143 143 143 142 142 142 142 142 142 142 142 142 142 142 142 141 141 141 141 141 141 141 141 141 141 140 140 140 141 141 141 141 141 141 141 141 141 141 141 141 141 141 141 141 141 141 141 141 141 141 141 140 140 140 140 140 140 140 140 140 140 140 140 140 141 141 141 141 141 141 141 141 141 141 141 142 142 142 142 142 142 142 142 142 142 142 142 142 142 142 142 142 142 142 142 142 143 143 143 144 144 144 145 145 146 146 146 147 147 147 147 147 147 147 147 147 147 147 147 147 147 146 146 146 146 145 145 145 145 145 145 144 144 144 144 144 144 144 145 146 148 150 153 156 160 165 169 174 178 181 185 187 189 190 191 191 191 191 190 189 187 185 182 178 174 170 165 160 156 152 148 146 144 142 141 141 140 140 140 139 139 139 139 139 139 138 139 139 139 139 139 139 139 139 139 140 140 140 140 140 141 141 141 141 141 141 142 142 142 142 143 143 143 143 144 144 144 145 145 145 146 146 146 147 147 148 148 148 149 149 149 150 150 151 151 151 151 152 152 152 152 152 152 152 152 152 152 152 152 152 152 151 151 151 150 150 149 149 148 148 147 147 146 146 145 145 144 143 143 142 142 141 141 141 140 140 140 139 139 139 139 139 139 138 138 138 138 138 138 138 138 138 138 138 138 138 138 139 139 139 139 139 139 139 139 139 139 139 139 139 139 139 139 139 139 139 139 139 139 139 139 139 139 139 139 139 139 139 139 139 139 139 139 139 138 138 138 138 138 138 138 138 138 138 138 138 138 138 138 138 138 138 138 138 138 138 139 139 139 139 139 139 139 140 140 140 140 140 140 141 141 141 141 141 141 141 141 141 141 141 141 141 142 142 142 142 142 142 142 142 142 142 143 143 143 143 144 144 144 145 145 145 146 146 146 146 147 147 147 147 147 147 147 147 147 147 147 147 146 146 146 146 146 145 145 145 145 145 145 145 144 144 144 144 144 144 145 146 147 149 151 154 157 161 165 170 174 178 181 184 187 188 189 190 190 190 189 189 187 186 183 180 177 173 169 164 160 156 152 149 147 145 144 143 143 143 142 142 142 142 142 142 142 142 142 142 142 142 142 142 142 143 143 143 143 144 144 144 144 144 145 145 145 145 146 146 146 146 147 147 147 148 148 148 148 149 149 149 150 150 150 151 151 151 152 152 153 153 153 154 154 154 155 155 155 156 156 156 157 157 157 157 158 158 158 158 157 157 157 157 156 156 156 155 155 154 153 153 152 151 151 150 149 149 148 147 147 146 146 145 145 144 144 143 143 143 142 142 142 142 142 142 142 142 142 142 142 142 142 142 142 142 142 142 142 142 142 142 142 142 142 142 142 142 142 142 142 142 143 143 143 143 143 143 143 143 143 143 142 142 142 142 142 142 142 142 142 142 142 142 142 141 141 141 141 141 141 141 142 142 142 142 142 142 142 142 142 142 143 143 143 143 143 143 143 143 143 143 143 143 143 143 143 143 143 143 143 143 143 143 143 143 143 143 144 144 144 144 144 144 145 145 146 146 146 146 147 147 147 148 148 148 148 148 148 148 148 148 148 148 148 147 147 147 147 146 146 146 146 146 145 145 145 145 145 145 145 145 145 146 148 149 152 155 158 162 166 171 175 179 183 185 188 189 190 191 191 191 191 190 189 187 184 181 177 173 169 164 160 156 152 149 146 145 144 143 142 142 141 141 141 141 141 141 141 141 141 141 141 141 142 142 142 142 142 143 143 143 143 144 144 144 144 145 145 145 146 146 146 146 147 147 147 148 148 148 149 149 149 150 150 151 151 152 152 152 153 153 154 154 154 155 155 156 156 156 157 157 157 158 158 158 158 158 158 158 158 158 158 158 158 157 157 156 156 155 155 154 154 153 152 152 151 150 150 149 149 148 147 147 146 146 146 145 145 144 144 144 144 143 143 143 143 143 142 142 142 142 142 142 142 142 142 142 142 142 142 142 142 142 142 142 142 142 142 143 143 142 142 142 142 142 142 142 142 142 141 141 141 141 141 141 140 140 140 140 140 140 140 140 140 140 140 140 140 140 140 140 141 141 141 141 141 141 141 141 141 141 141 141 141 141 142 142 142 142 142 142 142 142 142 142 142 142 142 142 143 143 143 143 144 144 145 145 145 146 146 146 146 147 147 147 147 147 147 147 146 146 146 146 145 145 144 144 144 143 143 143 142 142 142 142 142 141 141 141 141 141 141 141 142 143 145 147 150 153 156 161 165 169 172 175 177 179 180 181 181 181 181 181 180 179 177 175 172 169 165 161 157 153 149 146 144 143 141 141 140 140 140 140 139 139 139 139 139 139 139 139 139 139 140 140 140 140 140 140 141 141 141 141 142 142 142 143 143 143 144 144 144 144 145 145 145 146 146 146 147 147 147 148 148 148 149 149 149 150 150 151 151 152 152 152 153 153 153 154 154 155 155 155 155 156 156 156 156 156 156 157 157 157 157 156 156 156 156 155 155 154 154 153 153 152 152 151 150 149 149 148 147 146 146 145 144 144 143 143 142 142 142 142 141 141 141 141 141 141 141 141 141 141 141 141 141 141 142 142 142 142 142 142 142 142 142 142 142 142 142 143 143 143 143 143 143 143 144 144 144 144 144 144 144 144 144 144 143 143 143 143 143 143 143 143 143 143 142 142 142 142 142 142 142 142 142 142 142 142 141 141 141 141 141 141 141 141 141 142 142 142 142 143 143 144 144 145 145 146 147 147 148 148 149 149 150 150 150 150 150 150 150 150 150 150 149 149 149 149 148 148 148 148 147 147 147 147 146 146 146 146 146 146 146 146 147 148 150 152 155 158 161 165 169 173 176 178 180 181 182 183 183 183 183 183 182 181 179 176 174 170 166 162 158 155 151 149 147 146 145 144 144 144 144 144 143 143 144 144 144 144 144 144 144 145 145 145 145 146 146 146 147 147 147 147 147 148 148 148 148 148 149 149 149 150 150 150 151 151 151 152 152 152 152 153 153 153 154 154 155 155 156 156 156 157 157 157 158 158 158 159 159 159 160 160 160 160 161 161 161 161 161 161 160 160 160 160 159 159 158 158 157 157 156 156 155 154 154 153 153 152 151 151 150 150 149 149 148 148 147 147 147 147 146 146 146 146 146 146 145 145 145 145 145 145 145 145 145 145 145 145 145 144 144 144 144 144 144 144 144 144 144 144 144 144 143 143 143 143 143 143 142 142 142 142 142 142 141 141 141 141 141 140 140 140 140 139 139 139 139 139 139 138 138 138 138 138 138 138 138 138 137 137 137 137 138 138 138 138 138 138 138 138 139 139 139 139 139 139 139 139 139 139 139 139 139 138 138 138 138 137 137 137 136 136 136 135 135 135 135 135 134 134 134 134 134 133 133 133 133 133 134 135 136 139 141 145 149 152 156 160 164 166 169 170 171 172 172 173 173 172 172 171 169 167 164 161 157 153 149 145 141 138 136 134 133 133 132 132 132 132 132 132 132 132 132 132 132 132 132 132 132 133 133 133 133 134 134 134 134 135 135 135 135 136 136 136 137 137 137 138 138 138 139 139 140 140 140 141 141 142 142 143 143 144 144 145 145 146 146 147 147 148 149 149 149 150 150 151 151 151 152 152 152 152 152 152 152 152 152 152 152 151 151 151 150 150 149 148 148 147 146 146 145 144 143 143 142 141 141 140 140 139 139 138 138 137 137 137 137 137 137 137 137 137 137 137 137 137 138 138 138 138 138 139 139 139 139 140 140 140 140 140 140 140 141 141 141 141 141 141 141 141 141 141 141 141 141 141 141 141 141 142 142 142 142 142 142 142 143 143 143 143 143 143 143 144 144 144 144 144 144 144 144 144 144 144 145 145 145 145 145 146 146 146 146 147 147 147 147 147 148 148 148 148 149 149 149 149 148 148 148 148 148 148 148 148 148 148 148 148 148 148 148 148 148 148 148 148 149 150 151 152 155 157 161 165 169 174 178 183 187 190 193 195 196 196 196 196 196 195 194 192 190 187 184 179 175 170 165 160 156 153 150 147 146 145 145 145 145 145 144 144 144 144 144 144 144 144 144 144 145 145 145 145 145 146 146 146 146 146 146 147 147 147 147 147 147 148 148 148 148 148 148 149 149 149 149 150 150 150 151 151 151 152 152 152 153 153 154 154 155 155 156 156 157 157 158 158 158 159 159 159 159 159 159 159 159 159 159 159 158 158 157 156 156 155 154 154 153 152 151 150 149 149 148 147 146 145 145 144 143 143 142 142 142 141 141 141 140 140 140 140 140 140 140 140 140 140 140 140 140 140 140 140 140 140 140 140 140 140 141 141 141 141 141 141 141 141 141 141 141 141 141 141 141 141 141 141 141 141 141 141 141 141 141 141 141 141 141 141 141 141 142 142 142 142 142 142 142 142 142 142 142 142 143 143 143 144 144 144 144 145 145 145 145 146 146 146 146 146 146 146 146 146 145 145 145 145 145 145 144 144 144 144 144 144 144 143 143 143 143 143 143 143 143 144 146 148 150 154 157 162 167 172 177 182 186 190 193 196 197 198 199 199 199 199 198 196 193 190 186 181 176 171 166 161 156 152 149 147 145 144 143 142 141 141 140 140 140 140 139 139 139 139 139 139 140 140 140 140 140 140 140 141 141 141 141 141 141 142 142 142 142 142 142 142 143 143 143 143 143 144 144 144 144 144 145 145 145 146 146 146 147 147 147 147 148 148 149 149 149 149 150 150 150 151 151 151 151 151 151 151 151 151 151 151 150 150 150 149 149 148 147 147 146 146 145 144 144 143 142 142 141 141 140 140 139 139 138 138 138 137 137 137 137 137 136 136 136 136 136 136 136 136 136 137 137 137 137 137 137 137 138 138 138 138 139 139 139 139 139 139 139 140 140 140 140 140 140 140 141 141 141 141 141 141 141 141 141 141 141 141 141 141 141 141 141 141 141 141 141 141 141 141 141 141 141 141 141 141 141 142 142 142 142 142 142 142 142 142 143 143 143 144 144 144 145 145 146 146 146 147 147 147 147 147 147 148 148 148 147 147 147 147 148 148 148 148 148 148 149 149 149 150 150 151 151 151 151 152 152 153 154 155 156 158 160 163 167 171 175 180 184 189 193 196 199 201 202 203 204 204 204 203 202 200 198 195 191 187 183 178 173 169 164 161 158 156 154 153 152 152 151 151 151 150 150 150 150 150 150 150 150 150 150 150 150 150 151 151 151 151 152 152 152 152 152 152 153 153 153 153 153 154 154 154 154 155 155 155 156 156 156 157 157 158 158 158 159 159 160 160 161 161 162 162 162 163 163 164 164 164 164 165 165 165 165 165 165 165 165 165 165 164 164 164 163 163 162 162 161 161 160 159 159 158 157 157 156 155 155 154 154 153 152 152 151 151 151 150 150 150 150 149 149 149 149 149 149 149 149 149 149 149 149 149 149 149 149 149 149 149 149 149 149 149 149 149 149 149 149 150 150 149 150 150 150 150 150 150 150 150 150 150 150 150 150 150 150 150 150 150 150 150 150 150 150 150 150 150 150 150 150 150 150 150 150 150 150 150 150 150 150 150 150 150 150 150 150 150 150 150 150 150 150 150 150 150 150 150 150 150 150 150 150 150 150 150 150 150 150 150 150 150 150 150 150 150 150 150 150 150 150 150 150 150 150 150 150 150 150 150 150 150 150 151 151 151 151 151 152 152 152 152 152 153 153 153 154 154 154 155 155 155 155 155 155 155 155 155 155 155 155 155 155 154 154 154 154 153 153 153 153 152 152 152 152 151 151 151 151 152 153 155 158 161 164 168 173 177 182 186 190 192 195 196 197 198 198 198 198 197 195 193 191 188 184 180 175 170 165 161 157 154 152 150 149 148 148 148 148 147 147 147 147 147 147 147 147 147 147 148 148 148 148 148 149 149 149 149 149 149 149 150 150 150 150 151 151 151 151 152 152 152 152 153 153 153 154 154 154 155 155 156 156 157 157 157 158 158 159 159 160 160 160 161 161 162 162 162 163 163 163 163 163 163 163 163 163 163 163 162 162 162 161 161 161 160 159 159 158 157 157 156 155 155 154 153 152 151 151 150 149 148 148 147 146 146 146 145 145 145 144 144 144 143 143 143 143 143 143 143 143 143 143 143 143 143 143 143 143 143 143 143 143 143 143 143 143 143 143 143 143 143 143 143 143 143 143 143 143 143 143 143 143 143 143 143 143 143 143 143 143 143 143 143 143 143 143 143 143 143 143 143 142 142 142 142 142 141 141 141 141 141 141 141 141 141 141 141 141 141 141 141 141 141 141 141 141 141 142 142 142 142 142 142 143 143 143 143 143 143 143 143 143 144 144 144 144 144 144 144 144 144 144 143 143 143 143 143 143 143 143 143 143 143 144 144 144 144 144 145 145 146 146 146 146 147 147 147 147 147 147 147 147 147 147 147 146 146 146 145 145 144 144 144 143 143 142 142 142 141 141 140 140 140 140 140 141 143 145 147 150 154 158 163 168 172 177 181 184 186 188 190 190 191 191 191 190 189 187 184 181 177 173 168 163 158 154 150 146 144 142 140 139 138 137 137 136 136 136 136 136 136 135 135 135 135 136 136 136 136 136 137 137 137 137 137 137 137 137 137 137 138 138 138 138 138 138 138 138 138 138 139 139 139 139 139 140 140 140 141 141 141 142 142 143 143 143 144 144 145 145 146 146 146 147 147 147 148 148 148 148 148 148 148 148 148 148 148 148 147 147 147 146 146 145 145 144 144 143 142 142 141 141 140 139 139 138 137 137 136 136 135 135 135 134 134 134 134 134 133 133 133 133 133 133 133 133 133 133 133 133 133 134 134 134 134 134 134 134 134 134 134 134 134 134 134 134 134 134 134 134 134 134 134 134 134 134 134 134 134 134 134 134 134 133 133 133 133 133 133 133 133 133 134 134 134 133 133 133 133 133 134 134 134 134 134 134 134 134 134 134 134 134 134 134 134 134 134 134 134 134 134 134 134 134 135 135 135 135 135 135 135 135 135 136 136 136 136 136 136 136 136 136 137 137 137 137 137 137 137 137 137 138 138 138 138 138 138 138 138 138 138 138 138 139 139 139 139 139 139 140 140 140 141 141 141 142 142 143 143 143 144 144 145 145 145 145 145 145 145 146 145 145 145 145 145 145 145 144 144 144 144 144 144 143 143 143 143 143 143 143 144 145 146 148 151 154 158 162 167 171 175 179 183 185 187 188 189 190 190 190 189 188 186 184 181 178 174 170 165 160 156 152 148 146 143 142 141 140 140 139 139 139 138 138 138 138 138 138 138 138 138 138 139 139 139 139 139 140 140 140 140 141 141 141 141 141 142 142 142 142 143 143 143 143 144 144 144 145 145 146 146 146 147 147 148 148 149 149 149 150 150 151 151 152 152 153 153 153 154 154 155 155 155 156 156 157 157 157 157 157 157 157 157 157 156 156 156 155 155 154 153 153 152 151 150 150 149 148 147 147 146 145 145 144 144 143 143 142 142 141 141 141 141 141 141 140 140 140 140 140 140 140 140 140 140 140 141 141 141 141 141 141 141 141 141 141 141 142 142 142 142 142 142 142 142 142 142 142 142 142 142 142 142 142 142 142 142 142 142 142 142 142 142 142 142 142 142 142 142 142 142 142 142 142 141 141 141 141 141 141 141 141 141 141 141 141 141 141 141 141 141 141 141 142 142 142 142 142 142 142 142 142 141 141 141 141 141 141 141 141 141 141 141 141 141 141 141 141 141 141 141 141 141 141 141 142 142 142 142 142 142 142 142 142 143 143 143 143 143 144 144 144 145 145 146 146 147 147 148 148 149 149 150 150 150 151 151 151 152 152 152 152 151 151 151 151 151 150 150 150 150 150 149 149 149 149 149 148 148 148 148 149 149 151 152 155 157 161 165 169 174 178 183 186 189 192 193 194 195 196 196 196 195 194 193 191 188 185 181 176 172 167 163 159 156 154 152 151 150 150 149 149 149 149 148 148 148 148 148 148 148 148 148 148 148 149 149 149 149 149 149 149 149 150 150 150 150 150 151 151 151 152 152 152 153 153 153 154 154 154 155 155 155 156 156 156 157 157 157 158 158 159 159 159 160 160 161 161 161 161 162 162 163 163 163 163 163 163 164 164 164 164 164 163 163 163 163 162 162 161 161 160 160 159 158 157 157 156 155 154 154 153 152 152 151 150 150 149 149 148 148 147 147 147 147 146 146 146 146 146 146 146 146 145 145 145 145 146 146 146 146 146 146 146 146 146 146 146 146 146 146 146 147 147 147 147 147 147 147 147 147 147 147 147 146 146 146 146 146 146 146 146 146 146 146 145 145 145 145 145 145 145 145 145 145 145 145 145 145 145 145 145 145 145 145 145 146 146 146 146 146 146 146 146 146 146 146 146 147 147 147 147 147 148 148 148 148 148 148 148 148 148 148 148 148 148 148 148 148 148 148 148 148 149 149 149 149 149 149 149 149 149 149 149 149 149 149 150 150 150 150 151 151 151 152 152 153 153 153 153 154 154 154 154 154 154 154 154 154 154 154 154 153 153 153 153 152 152 152 152 152 152 152 152 152 152 153 155 157 159 162 166 171 175 181 186 190 195 198 201 203 205 206 206 207 206 206 205 203 201 198 194 190 185 180 175 170 166 162 160 157 156 155 154 153 153 152 152 152 151 151 151 151 150 150 150 150 150 150 150 150 150 150 150 150 150 150 150 150 150 150 150 150 151 150 150 150 151 151 151 151 151 151 152 152 152 152 153 153 153 153 154 154 154 155 155 156 194 195 195 195 196 196 197 197 198 198 199 199 199 199 199 200 200 200 199 199 161 160 160 160 159 158 158 157 156 155 154 154 153 152 151 150 149 148 147 146 146 145 144 143 142 142 141 140 140 139 139 138 138 137 137 136 136 136 136 135 135 135 135 135 135 135 135 135 135 135 135 135 136 136 136 136 136 136 136 136 136 136 136 136 136 136 136 136 136 136 136 136 136 136 136 136 136 135 135 135 135 135 135 135 135 135 135 134 134 134 134 134 134 134 134 134 134 134 134 134 134 134 134 134 134 134 133 133 133 133 133 133 133 133 133 133 133 133 133 134 134 134 134 134 134 134 134 134 134 134 134 134 134 134 134 135 135 135 136 136 137 137 137 138 138 139 139 139 140 140 140 140 141 141 141 141 140 140 140 140 139 139 139 139 138 138 138 138 137 137 137 137 136 136 136 136 136 137 138 139 142 144 148 152 157 162 167 172 177 182 186 190 192 194 196 196 197 197 196 195 193 190 187 183 178 173 168 162 157 152 148 144 142 140 138 137 137 136 135 135 134 134 134 133 133 133 133 133 134 134 134 134 134 135 135 135 135 136 136 136 137 137 137 138 138 138 139 139 139 140 140 140 141 141 141 142 142 142 143 143 144 144 145 145 146 146 147 147 148 148 148 149 149 150 150 151 151 151 152 152 153 153 153 153 153 154 154 154 154 154 154 153 153 153 152 152 151 151 150 150 149 148 147 147 146 145 145 144 143 142 142 141 141 140 140 140 139 139 139 138 138 138 138 138 138 138 138 138 138 138 138 138 138 139 139 139 139 139 139 140 140 140 140 140 141 141 141 141 141 141 142 142 142 142 142 143 143 143 143 143 143 143 144 144 144 144 144 144 145 145 145 145 145 145 145 145 146 146 146 146 146 146 146 146 146 146 146 146 146 146 146 146 146 146 146 147 147 147 147 147 147 148 148 148 149 149 149 149 150 150 150 150 151 151 151 151 151 151 151 151 151 151 151 151 151 152 152 152 152 153 153 153 153 154 154 154 154 154 154 154 154 154 154 155 155 155 154 154 154 154 154 154 153 153 153 153 153 153 153 153 153 153 152 152 152 152 152 153 154 156 158 161 165 169 173 178 183 188 192 196 200 202 204 206 206 207 207 206 205 204 201 198 195 191 186 181 175 170 165 161 158 155 153 151 150 149 149 148 148 147 147 147 146 146 146 146 146 146 146 146 146 146 146 146 147 147 147 147 148 148 148 148 149 149 149 149 149 150 150 150 150 151 151 151 152 152 152 152 152 153 153 153 153 154 154 155 155 156 156 156 157 157 157 158 158 159 159 159 160 160 160 161 161 161 161 161 161 161 160 160 160 160 159 159 158 158 157 156 156 155 154 153 153 152 151 151 150 149 149 148 147 147 146 146 146 145 145 145 145 144 144 144 144 144 144 144 144 143 143 143 143 143 143 143 144 144 144 144 143 143 143 143 144 144 144 144 144 144 144 144 144 144 144 143 143 143 143 143 143 143 143 143 143 142 142 142 142 142 142 142 142 142 142 142 142 142 142 142 142 142 142 142 142 142 142 142 142 142 142 142 142 142 142 142 142 142 141 141 141 141 141 141 141 141 141 141 141 141 141 141 141 141 141 141 141 141 140 140 140 140 140 140 140 140 140 141 141 141 141 141 142 142 142 142 143 143 143 144 144 144 144 144 144 144 145 145 145 145 144 144 144 144 144 143 143 143 143 143 142 142 142 142 142 142 142 141 141 141 141 142 143 144 146 148 151 154 158 162 167 171 175 179 183 185 187 188 189 190 190 189 189 187 186 183 181 177 173 169 164 159 155 151 147 144 142 141 140 139 139 138 138 138 137 137 137 137 137 137 137 137 137 137 137 137 138 138 138 138 138 138 139 139 139 139 139 140 140 140 140 140 141 141 141 141 142 142 142 143 143 143 144 144 145 145 146 146 147 147 147 148 148 149 149 150 150 151 151 151 151 152 152 152 152 152 152 152 152 152 152 152 152 152 152 151 151 151 150 150 149 149 148 148 147 146 146 145 145 144 143 143 142 142 141 141 140 140 139 139 139 139 139 138 138 138 138 138 138 138 138 138 138 138 138 138 138 138 138 138 138 138 138 138 138 138 138 138 138 138 138 138 138 138 138 138 138 138 138 138 138 138 138 138 138 138 138 138 138 138 138 138 138 138 138 138 138 138 138 138 138 138 138 138 139 139 139 139 139 139 139 139 139 139 139 139 139 139 139 140 140 140 140 140 140 140 140 140 140 140 140 140 140 140 140 140 140 140 140 140 140 140 140 140 140 140 141 141 141 141 141 141 141 141 141 142 142 142 142 142 143 143 143 144 144 144 145 145 145 145 145 145 145 145 145 145 145 145 145 144 144 144 144 143 143 143 143 142 142 142 142 142 141 141 141 141 141 142 143 144 145 148 151 154 158 162 166 170 174 177 180 182 183 184 184 185 184 184 183 182 180 177 174 171 167 162 158 154 150 146 143 141 140 139 138 138 137 137 137 137 137 137 137 137 137 137 137 137 137 137 137 137 137 138 138 138 138 138 138 139 139 139 139 139 140 140 140 140 141 141 141 142 142 142 143 143 144 144 144 145 145 146 146 147 147 148 148 149 149 150 150 150 151 151 152 152 153 153 153 154 154 154 154 154 154 154 154 154 154 154 154 153 153 152 152 151 151 150 150 149 148 147 147 146 145 144 144 143 142 141 141 140 140 139 139 138 138 138 137 137 137 137 137 137 137 137 137 137 137 137 137 137 137 137 138 138 138 138 138 138 138 139 139 139 139 139 139 139 139 140 140 140 140 140 140 140 140 140 140 140 140 140 140 140 140 139 139 139 139 139 139 139 139 139 139 139 139 140 140 140 140 140 140 140 140 140 140 140 140 140 140 140 140 140 140 140 140 140 140 140 140 140 140 140 140 140 140 140 141 141 141 141 141 141 141 141 142 142 142 142 143 143 143 144 144 144 145 145 145 146 146 146 146 146 146 146 146 146 146 146 146 145 145 145 145 145 144 144 144 144 144 143 143 143 143 143 143 144 145 146 148 151 154 157 161 166 171 175 180 183 187 189 191 192 192 192 192 191 190 189 187 184 181 178 173 169 164 159 154 150 147 145 143 142 141 141 141 141 141 141 141 141 141 141 141 141 141 142 142 142 142 142 142 143 143 143 143 143 143 144 144 144 144 144 144 144 145 145 145 145 145 145 146 146 146 146 147 147 147 148 148 149 149 150 150 151 152 152 153 154 154 155 156 156 157 158 158 159 159 160 160 160 160 161 161 161 161 161 160 160 160 159 158 158 157 156 155 155 154 153 152 151 150 149 148 147 146 145 144 143 142 142 141 140 140 139 139 139 138 138 138 138 138 138 138 138 138 138 138 138 138 138 138 138 139 139 139 139 139 139 139 139 140 140 140 140 140 140 140 140 140 140 140 140 140 140 139 139 139 139 139 139 139 139 139 139 139 139 139 139 139 139 139 139 139 139 139 139 139 139 139 139 139 139 139 139 139 140 139 139 140 140 140 140 140 140 139 139 139 140 140 140 140 140 140 140 140 140 141 141 141 142 142 142 143 143 144 144 144 144 144 144 144 145 145 145 144 144 144 144 143 143 143 143 142 142 142 142 142 142 142 142 141 141 141 141 142 143 144 146 149 152 156 160 165 170 176 181 186 190 193 196 198 199 200 201 200 200 199 197 195 192 188 183 178 173 167 162 157 152 148 146 144 142 141 140 139 139 138 138 137 137 137 137 137 137 137 137 137 137 137 137 138 138 138 138 139 139 139 139 139 140 140 140 141 141 141 142 142 142 143 143 143 144 144 145 145 146 146 147 147 148 148 148 149 149 150 150 151 152 152 153 153 153 154 154 155 155 155 156 156 156 156 157 157 157 156 156 156 156 155 155 154 154 153 153 152 151 151 150 149 148 148 147 146 145 144 144 143 142 142 141 141 141 140 140 140 139 139 139 139 139 139 139 139 139 139 139 139 139 139 139 139 139 140 140 140 140 140 140 140 140 140 140 140 140 141 141 141 141 141 141 141 141 141 141 141 141 141 141 141 141 141 142 142 142 142 142 142 142 142 142 142 142 142 142 142 142 142 142 142 142 142 142 143 143 143 143 143 143 143 143 143 143 143 143 143 143 144 144 144 144 145 145 145 145 146 146 146 146 146 146 146 146 146 146 146 146 146 146 146 146 145 145 145 145 144 144 144 144 144 144 144 143 143 143 143 142 142 143 143 144 145 147 150 153 156 161 165 169 174 178 182 184 187 188 189 189 189 189 188 187 186 184 181 178 174 169 165 160 155 151 147 144 141 140 139 138 138 138 138 137 137 137 137 137 136 136 137 137 137 137 137 137 137 137 137 137 138 138 138 138 138 139 139 139 139 140 140 140 140 141 141 141 141 142 142 142 143 143 143 144 144 145 145 146 146 147 147 148 148 149 149 150 151 151 152 152 153 153 153 154 154 154 154 155 155 155 155 154 154 154 153 153 152 152 151 150 150 149 148 148 147 146 145 144 143 143 142 141 140 140 139 138 138 138 137 137 137 136 136 136 136 136 136 136 136 136 136 136 136 136 137 137 137 137 137 137 138 138 138 138 138 138 138 138 138 138 138 138 138 138 138 138 138 138 138 138 138 139 139 139 139 139 140 140 140 140 141 141 141 141 141 141 141 141 141 142 142 142 142 142 142 142 142 142 142 142 142 142 142 142 142 142 142 142 142 142 143 143 143 143 143 143 144 144 144 145 145 146 146 146 147 147 147 148 148 148 148 148 149 149 149 149 149 149 149 148 148 148 148 148 147 147 147 147 147 147 147 147 147 146 146 146 146 147 147 148 149 151 153 156 160 164 168 173 178 183 187 191 193 196 197 198 198 198 197 197 195 193 191 188 184 180 175 170 165 160 155 151 148 146 144 143 143 142 142 142 142 142 141 141 141 141 141 141 141 141 141 142 142 142 142 142 143 143 143 143 143 143 143 144 144 144 145 145 145 145 146 146 146 147 147 147 148 148 148 149 149 150 150 151 151 152 152 153 153 154 154 155 156 156 157 157 158 158 158 159 159 159 160 160 160 160 160 160 160 160 159 159 159 158 158 157 157 156 155 155 154 153 152 152 151 150 149 148 148 147 146 146 145 144 144 143 142 142 142 141 141 141 141 140 140 140 140 140 140 140 141 141 141 141 141 141 141 141 142 142 142 142 142 142 142 142 142 142 142 142 142 142 141 141 141 141 141 141 141 141 141 141 141 141 141 141 141 141 141 141 141 141 141 141 141 141 141 141 141 141 141 141 141 141 140 140 140 140 140 140 140 140 140 140 140 140 140 140 140 140 140 140 140 140 140 140 140 140 140 140 140 140 140 141 141 141 141 141 141 142 142 142 142 143 143 144 144 144 144 145 145 145 145 146 146 146 146 146 146 146 146 146 145 145 145 145 145 145 145 145 144 144 144 144 143 143 143 144 144 145 147 149 152 156 160 164 169 174 179 184 188 191 194 196 197 198 198 198 198 197 196 193 191 187 183 178 173 168 163 158 154 150 148 146 144 143 142 142 141 141 140 140 140 140 140 140 140 140 140 140 140 140 141 141 141 141 141 141 142 142 142 142 143 143 143 143 143 143 144 144 144 144 144 145 145 145 145 145 146 146 146 147 147 147 148 148 149 149 150 150 151 151 152 152 153 153 153 154 154 154 154 154 155 155 155 155 155 154 154 154 154 154 153 153 152 152 152 151 151 150 149 149 148 147 147 146 145 145 144 144 143 143 142 142 141 141 141 141 141 140 140 140 140 140 140 140 141 141 141 141 141 141 141 141 141 141 140 140 140 141 141 141 140 140 140 140 140 140 140 140 140 140 140 140 140 140 140 140 140 140 140 140 140 140 140 140 140 140 140 140 140 140 139 139 139 139 139 139 139 139 139 139 139 139 139 139 140 140 140 140 140 140 140 141 141 141 141 141 142 142 142 142 142 142 143 143 143 143 143 143 143 143 143 143 143 143 143 144 144 144 144 144 144 144 144 144 144 144 145 145 145 145 146 146 146 146 147 147 147 147 148 148 148 149 149 149 150 150 150 150 150 150 151 151 151 151 150 150 150 150 150 150 150 150 149 149 149 149 148 148 148 148 148 148 148 148 148 149 150 152 155 157 161 165 169 173 178 182 186 189 192 194 195 196 196 196 196 195 194 193 190 187 184 180 176 171 167 162 158 155 152 150 149 148 147 147 146 146 146 145 145 145 145 145 145 145 145 146 146 146 146 146 146 146 147 147 147 147 147 147 147 148 148 148 148 148 148 148 148 149 149 149 149 150 150 150 150 150 150 151 151 151 152 152 153 153 153 154 154 154 155 155 155 155 155 155 156 156 156 156 156 156 156 156 156 155 155 155 154 154 154 153 153 152 152 151 151 150 150 149 148 148 147 146 146 145 145 144 144 143 143 143 143 142 142 142 142 141 141 141 141 141 141 141 141 140 140 140 140 140 140 140 140 140 140 140 140 140 140 140 140 140 140 140 140 140 140 140 140 140 140 140 140 140 140 140 141 141 141 141 140 140 140 140 141 141 141 141 141 141 141 141 141 141 141 141 141 141 141 141 141 141 141 141 141 141 141 141 141 141 141 141 141 141 141 141 141 141 141 141 141 141 141 141 141 141 141 141 141 141 141 142 142 142 142 142 142 142 142 143 143 143 143 143 143 143 143 143 143 143 143 143 143 143 143 143 143 143 143 143 144 144 144 144 144 144 145 145 145 145 146 146 146 146 147 147 147 147 148 148 148 148 148 148 148 148 148 148 148 147 147 147 147 147 147 146 146 146 146 146 146 145 145 145 145 145 146 147 148 150 152 155 158 162 166 170 174 177 180 183 185 186 187 187 187 187 186 186 184 182 180 177 173 169 165 161 156 153 149 147 145 143 142 142 141 140 140 140 140 139 139 139 139 139 139 139 139 140 140 140 140 140 140 140 140 141 141 141 141 142 142 142 142 142 143 143 143 143 144 144 145 145 145 146 146 146 147 147 148 148 149 149 150 150 151 151 151 152 152 153 153 154 154 155 155 156 156 156 156 156 156 156 156 156 156 156 156 156 156 155 155 155 154 154 153 153 152 151 151 150 149 149 148 147 147 146 146 145 145 144 144 144 143 143 143 143 143 143 143 143 143 143 143 143 143 143 143 143 143 143 143 143 143 143 143 143 143 143 143 143 143 143 143 143 144 144 144 144 144 144 144 143 143 143 143 143 143 143 143 143 143 143 143 143 144 144 144 144 144 144 144 144 144 144 144 144 144 144 144 144 144 144 144 144 144 144 144 144 144 144 144 144 144 144 144 144 144 144 144 144 144 144 144 144 144 144 144 144 144 144 145 145 145 145 145 145 145 145 145 145 145 145 145 145 144 144 144 144 144 144 144 144 145 145 145 145 145 146 146 147 147 147 148 148 149 150 150 150 151 151 151 151 151 151 151 151 151 150 150 150 149 149 149 148 148 148 147 147 147 146 146 146 146 146 145 145 145 145 146 147 148 149 151 154 157 160 164 168 172 176 179 181 183 185 185 186 186 186 185 184 183 181 179 176 173 169 165 161 156 152 149 146 144 142 141 141 140 140 140 140 140 140 140 140 140 140 140 140 140 140 140 141 141 141 141 141 141 141 141 141 141 141 141 141 142 142 142 142 142 143 143 143 143 144 144 145 145 145 146 146 147 147 148 148 149 149 150 150 151 151 152 152 153 153 153 154 154 154 155 155 155 155 155 155 155 155 155 155 155 155 154 154 154 153 153 152 152 151 150 150 149 148 148 147 146 145 145 144 143 143 142 142 141 141 140 140 139 139 139 139 138 138 138 138 138 138 138 138 138 138 138 138 138 138 138 138 139 139 139 139 139 139 139 138 138 138 138 138 138 138 138 138 138 138 137 137 137 137 137 137 137 137 137 137 137 137 137 137 137 136 136 136 136 136 136 136 136 136 136 136 136 136 136 136 136 136 136 136 136 136 136 136 136 136 136 136 136 136 136 136 136 136 137 137 137 137 137 137 137 137 137 137 137 137 137 138 138 138 138 138 138 139 139 139 140 140 141 141 141 142 142 142 142 143 143 143 143 143 142 142 142 142 142 141 141 141 141 140 140 140 140 140 140 140 140 140 140 140 140 140 141 142 143 145 147 150 153 157 161 165 169 173 177 180 182 183 184 185 185 185 185 184 183 182 180 177 173 170 165 161 157 153 149 146 144 143 142 141 141 141 141 140 140 140 140 140 140 140 141 141 141 142 142 142 143 143 143 143 144 144 144 145 145 145 146 146 146 147 147 147 148 148 148 149 149 149 150 150 151 151 152 152 153 154 154 155 155 156 157 157 158 158 159 160 160 161 161 162 162 163 163 163 163 163 164 164 164 164 163 163 163 163 162 162 161 161 160 159 159 158 157 156 156 155 154 153 153 152 151 151 150 149 148 148 147 147 146 146 146 145 145 145 144 144 144 144 143 143 143 143 143 143 142 142 142 142 142 142 142 142 141 141 141 141 141 141 141 141 141 141 141 141 141 141 141 141 141 141 141 141 141 141 141 141 141 141 141 141 141 141 141 141 141 141 141 141 140 140 140 140 140 140 140 139 139 139 139 139 139 139 139 139 139 139 139 139 139 139 139 139 139 140 140 140 140 141 141 141 142 142 142 143 143 143 144 144 144 144 144 144 144 144 144 144 143 143 143 143 142 142 142 142 141 141 141 141 140 140 140 140 140 140 140 140 140 140 141 142 143 145 147 151 154 158 163 167 172 176 179 182 185 186 187 188 188 188 188 187 186 184 181 178 174 170 165 161 156 152 148 144 142 140 139 138 137 137 136 136 135 135 135 135 135 135 135 135 135 135 135 135 135 135 136 136 136 136 136 136 137 137 137 137 138 138 138 139 139 140 140 140 141 141 141 142 142 143 143 144 144 144 145 145 146 146 147 147 148 148 148 149 149 149 150 150 151 151 151 152 152 152 152 152 152 152 152 152 152 152 152 151 151 151 150 149 149 148 148 147 146 146 145 144 144 143 142 142 141 141 140 140 139 139 139 139 139 138 138 138 138 138 138 138 138 138 138 137 137 137 137 137 137 137 137 137 137 138 138 138 138 138 138 138 138 138 138 138 138 139 139 139 139 139 139 139 139 139 139 139 139 139 139 139 139 139 139 139 139 139 139 139 139 139 139 139 139 139 139 140 140 140 140 140 140 140 140 140 140 140 140 140 141 141 141 141 141 142 142 142 143 143 143 144 144 145 145 145 146 146 146 147 147 147 147 147 147 147 147 147 146 146 146 146 146 146 145 145 145 145 145 145 145 145 144 144 144 145 145 145 146 147 149 151 154 158 162 166 170 174 178 182 184 187 188 189 190 190 191 190 190 189 187 185 182 179 175 171 166 162 158 155 152 149 148 147 146 146 145 145 145 145 145 145 145 145 145 145 145 145 145 145 146 146 146 147 147 147 147 148 148 148 149 149 149 150 150 150 151 151 151 152 152 153 153 153 154 154 155 155 156 156 157 157 158 158 159 160 160 161 161 162 163 163 164 164 165 165 166 166 167 167 167 167 168 168 168 168 168 168 167 167 167 166 166 165 165 164 163 163 162 162 161 161 160 159 159 158 158 157 157 156 156 156 155 155 155 154 154 154 154 154 153 153 153 153 153 153 153 153 153 153 153 153 153 153 153 153 153 153 153 153 153 152 152 152 152 152 152 152 152 151 151 151 151 151 151 151 151 151 151 151 151 151 150 150 150 150 150 150 150 150 150 150 149 149 149 149 148 148 148 148 148 147 147 147 147 147 147 147 146 146 146 146 146 146 146 147 147 147 147 148 148 149 149 149 150 150 150 150 151 151 151 151 151 151 151 151 151 151 150 150 150 150 149 149 149 149 148 148 148 148 148 148 148 148 148 148 148 148 149 150 151 154 156 160 164 168 172 177 181 185 189 192 194 195 196 197 197 197 196 195 194 192 189 186 182 178 173 168 164 160 156 153 151 150 149 148 148 147 147 147 147 146 146 146 146 146 146 146 146 146 146 146 146 146 146 146 147 147 147 147 147 147 148 148 148 148 148 149 149 149 150 150 150 150 151 151 152 152 152 153 153 153 154 154 155 155 156 156 156 157 157 158 158 159 159 159 160 160 160 160 161 161 161 161 161 161 161 161 161 160 160 160 159 159 158 157 157 156 155 155 154 153 152 151 150 150 149 148 148 147 146 146 145 145 144 144 144 143 143 143 143 142 142 142 142 142 142 142 142 142 142 142 142 142 142 142 142 142 142 143 143 143 143 143 143 143 143 143 143 143 143 142 142 142 142 142 142 142 142 142 142 142 142 142 142 142 142 142 142 142 142 142 142 141 141 141 141 141 141 141 141 141 141 141 141 141 141 141 141 140 140 140 140 140 140 140 140 140 140 140 140 140 140 141 141 141 141 142 142 142 143 143 143 144 144 144 144 145 145 145 145 145 146 145 145 145 145 145 145 144 144 144 144 143 143 143 143 142 142 142 141 141 141 141 141 141 141 141 142 143 144 146 149 152 155 159 163 167 171 175 178 180 182 183 184 184 184 183 183 182 180 178 175 172 168 164 159 155 151 147 144 141 139 138 137 137 136 136 136 135 135 135 135 135 135 135 135 135 135 135 135 136 136 136 136 136 137 137 137 137 138 138 138 138 139 139 139 139 140 140 140 141 141 141 142 142 142 143 143 143 144 144 144 145 145 146 146 147 147 148 148 149 149 149 150 150 151 151 151 152 152 152 152 152 152 152 152 152 152 152 152 151 151 150 150 149 149 148 147 147 146 145 145 144 143 143 142 141 141 140 140 139 139 138 138 138 138 137 137 137 137 137 137 137 137 137 137 137 137 137 137 137 137 137 137 137 138 138 138 138 138 138 138 138 138 138 138 138 138 138 138 138 138 138 138 138 138 138 138 138 138 138 138 138 138 138 138 138 138 138 138 138 138 138 138 138 138 138 138 138 138 139 139 139 139 139 139 139 139 139 139 139 139 139 139 139 139 139 139 139 139 139 140 140 140 140 140 140 140 140 140 140 140 140 140 141 141 141 141 141 141 141 141 141 141 141 141 141 141 142 142 142 141 142 142 142 142 142 142 142 143 143 143 144 144 144 145 145 145 145 146 146 146 146 146 146 146 146 146 146 146 146 145 145 145 144 144 144 144 143 143 143 143 143 142 142 142 142 142 142 142 143 144 145 147 150 153 157 161 165 169 173 176 179 182 183 185 185 185 185 185 184 183 182 179 177 173 170 165 161 157 152 149 145 143 141 140 139 138 138 138 138 137 137 137 137 137 137 137 137 137 137 138 138 138 138 138 138 139 139 139 139 139 140 140 140 140 140 141 141 141 142 142 142 142 143 143 143 144 144 145 145 145 146 146 147 147 147 148 148 149 149 150 150 150 151 151 152 152 152 153 153 153 153 153 153 154 154 154 153 153 153 153 153 152 152 152 151 151 150 149 149 148 147 147 146 145 145 144 143 143 142 141 141 140 140 139 139 138 138 138 138 137 137 137 137 137 137 137 137 137 137 138 138 138 138 138 138 138 138 139 139 139 139 139 139 139 139 139 140 140 140 140 140 140 140 140 140 140 140 140 140 140 140 140 140 140 140 140 140 140 140 140 140 140 140 140 140 140 140 140 140 140 140 140 140 140 140 140 140 